[Header]
File Type: 1
Version: 2
Channels exported: 16
Samples per channel: 14130
Start time: 12:24:03
End time: 12:24:17
Ch. Info. Pointer: 320
Stamp Data: C
Mux format: 0
Mux Block Size: 
Data Format 1
Sample Rate: 1000Hz
Channel #:   1
Label: I
Range: 5mv 
Low: .5Hz
High: 50Hz
Sample rate: 1000Hz
Color: FFFFFF
Scale: -7
Channel #:   2
Label: II
Range: 5mv 
Low: .5Hz
High: 50Hz
Sample rate: 1000Hz
Color: FFFFFF
Scale: -7
Channel #:   3
Label: III
Range: 5mv 
Low: .5Hz
High: 50Hz
Sample rate: 1000Hz
Color: FFFFFF
Scale: -7
Channel #:   4
Label: aVR
Range: 5mv 
Low: .5Hz
High: 50Hz
Sample rate: 1000Hz
Color: FFFFFF
Scale: -6
Channel #:   5
Label: aVL
Range: 5mv 
Low: .5Hz
High: 50Hz
Sample rate: 1000Hz
Color: FFFFFF
Scale: -7
Channel #:   6
Label: aVF
Range: 5mv 
Low: .5Hz
High: 50Hz
Sample rate: 1000Hz
Color: FFFFFF
Scale: -7
Channel #:   7
Label: V1
Range: 5mv 
Low: .5Hz
High: 50Hz
Sample rate: 1000Hz
Color: FFFFFF
Scale: -6
Channel #:   8
Label: V2
Range: 5mv 
Low: .5Hz
High: 50Hz
Sample rate: 1000Hz
Color: FFFFFF
Scale: -7
Channel #:   9
Label: V3
Range: 5mv 
Low: .5Hz
High: 50Hz
Sample rate: 1000Hz
Color: FFFFFF
Scale: -7
Channel #:  10
Label: V4
Range: 5mv 
Low: .5Hz
High: 50Hz
Sample rate: 1000Hz
Color: FFFFFF
Scale: -7
Channel #:  11
Label: V5
Range: 5mv 
Low: .5Hz
High: 50Hz
Sample rate: 1000Hz
Color: FFFFFF
Scale: -7
Channel #:  12
Label: V6
Range: 5mv 
Low: .5Hz
High: 50Hz
Sample rate: 1000Hz
Color: FFFFFF
Scale: -7
Channel #:  13
Label: ABL-D
Range: 2mv 
Low: 30Hz
High: 250Hz
Sample rate: 1000Hz
Color: 0000FF
Scale: -7
Channel #:  14
Label: ABL-P
Range: 2mv 
Low: 30Hz
High: 250Hz
Sample rate: 1000Hz
Color: 0000FF
Scale: -7
Channel #:  15
Label: RV-D
Range: 5mv 
Low: 30Hz
High: 250Hz
Sample rate: 1000Hz
Color: FFFFFF
Scale: -7
Channel #:  16
Label: RV-P
Range: 5mv 
Low: 30Hz
High: 250Hz
Sample rate: 1000Hz
Color: FFFFFF
Scale: -7

[Data]
32,-384,-416,160,224,-400,480,592,112,16,784,176,48,0,-3520,-2800
32,-400,-448,160,240,-432,496,592,112,32,752,192,-304,128,-4112,-3504
16,-384,-416,176,208,-400,496,592,112,16,912,176,-400,224,-4784,-4720
0,-368,-368,160,192,-368,496,560,80,-16,848,144,64,-80,-4720,-5152
16,-352,-384,144,192,-368,480,544,64,-32,816,144,144,-128,-3456,-4288
16,-336,-368,144,192,-368,480,528,48,-32,704,128,128,-112,-1424,-2496
16,-368,-384,160,192,-384,464,512,48,-48,720,112,208,-32,992,-304
16,-432,-448,192,224,-432,464,496,32,-64,672,112,-112,176,3056,1552
0,-464,-480,224,224,-480,480,512,48,-48,752,112,-176,64,4192,2816
0,-464,-464,224,224,-480,480,496,48,-48,848,112,-32,-48,4576,3504
0,-480,-496,224,240,-496,496,496,48,-48,768,112,112,-144,4800,4224
0,-480,-496,224,240,-496,496,480,32,-64,720,96,-160,64,4768,4864
0,-464,-480,224,224,-464,464,464,16,-80,720,80,-272,96,3616,4432
0,-480,-496,224,240,-480,464,464,16,-80,768,80,16,16,1648,2960
0,-464,-464,224,224,-464,464,448,0,-96,736,64,-48,-48,-496,1088
0,-416,-432,192,208,-416,448,416,-16,-128,720,48,320,-32,-2496,-720
0,-416,-432,192,208,-432,432,416,-32,-128,672,48,464,-240,-3600,-2032
0,-432,-464,208,224,-448,432,400,-32,-128,672,48,-128,48,-4336,-3168
0,-464,-480,224,224,-480,448,416,-16,-128,752,48,-624,304,-4640,-3984
-16,-496,-512,240,240,-496,448,416,-16,-128,848,32,-288,48,-4816,-5040
-16,-544,-544,256,256,-544,464,416,-16,-128,816,48,128,-128,-4032,-4896
0,-560,-576,272,288,-576,464,416,-16,-112,752,64,144,-32,-2208,-3632
16,-512,-544,224,272,-528,464,400,-32,-128,656,48,272,-144,0,-1776
16,-464,-496,208,256,-480,432,368,-48,-160,672,32,160,64,2208,416
0,-464,-480,208,224,-464,416,368,-64,-160,704,32,-112,0,3712,2096
0,-464,-480,224,224,-480,416,352,-64,-176,752,16,-128,128,4208,3024
0,-512,-528,240,256,-512,416,368,-48,-160,848,32,96,-32,4160,3504
0,-480,-496,224,240,-480,416,352,-64,-160,736,16,64,-80,4432,4528
0,-464,-496,208,240,-480,416,352,-64,-176,704,32,-224,112,4080,4816
16,-464,-496,208,256,-480,432,352,-64,-176,736,32,-224,80,2848,4048
0,-496,-512,224,240,-496,416,352,-80,-176,832,32,-80,-32,1008,2496
16,-448,-480,208,240,-464,416,336,-80,-176,736,32,160,-128,-1056,448
0,-448,-464,208,224,-448,400,320,-96,-192,736,16,496,-208,-2624,-1200
0,-448,-464,208,224,-448,400,320,-96,-176,688,32,368,-144,-3568,-2496
0,-448,-464,208,224,-448,400,304,-96,-176,688,32,-288,192,-4128,-3344
0,-464,-496,208,240,-464,416,320,-80,-160,784,64,-672,256,-4528,-4288
0,-480,-480,224,240,-480,416,320,-80,-160,800,48,-64,-32,-4704,-5088
0,-464,-480,224,224,-464,400,320,-96,-176,800,48,64,-48,-3792,-4560
0,-496,-512,240,240,-496,416,320,-80,-160,736,48,192,-16,-2000,-2992
0,-560,-576,272,272,-560,432,336,-64,-144,688,80,272,-304,144,-1040
0,-592,-592,288,288,-592,448,352,-48,-128,656,96,64,112,2320,960
0,-576,-576,272,272,-576,432,336,-64,-144,768,96,-304,-16,3824,2336
-16,-576,-576,272,272,-576,448,352,-48,-128,864,112,-48,0,4480,3104
-16,-608,-608,304,288,-608,448,352,-48,-128,848,96,176,64,4656,3808
-16,-624,-624,304,288,-624,464,352,-48,-112,704,96,-80,0,4864,4848
-16,-656,-640,320,304,-640,464,368,-32,-112,736,112,-288,160,4096,4800
-16,-672,-656,320,304,-656,464,368,-16,-96,752,144,-16,-64,2400,3600
-16,-640,-640,320,304,-640,448,352,-48,-112,800,128,-128,-16,336,1808
-16,-656,-640,320,304,-640,464,368,-32,-112,768,128,272,-64,-1760,-208
-16,-688,-672,336,320,-672,464,368,-32,-112,768,128,512,-224,-3168,-1696
-16,-736,-736,368,336,-736,480,384,-16,-96,720,144,48,0,-4016,-2864
-32,-752,-736,384,336,-752,496,400,0,-80,720,160,-560,176,-4400,-3632
-16,-704,-704,352,336,-704,480,400,0,-80,896,160,-480,128,-4848,-4768
0,-688,-688,336,336,-688,464,368,-32,-112,880,128,144,-64,-4544,-5120
-16,-704,-704,336,336,-688,448,352,-48,-128,880,112,144,-128,-3072,-4288
0,-704,-704,336,336,-720,464,368,-48,-128,752,128,240,-128,-912,-2544
0,-736,-752,352,352,-736,464,384,-16,-96,784,144,96,-16,1424,-304
16,-704,-704,336,352,-704,464,384,-32,-112,752,128,-144,16,3376,1600
16,-640,-656,304,320,-640,448,368,-32,-128,864,128,-176,112,4352,2928
16,-624,-640,288,320,-640,432,352,-48,-144,976,112,16,0,4640,3584
0,-672,-688,320,336,-672,432,368,-48,-128,928,112,112,-32,4672,4352
16,-720,-752,336,368,-720,464,384,-32,-112,896,128,-64,16,4448,4832
0,-752,-768,368,368,-768,464,400,-16,-112,912,144,-240,144,3344,4272
16,-752,-768,352,384,-768,480,416,0,-96,944,160,0,-16,1392,2752
16,-752,-768,352,384,-752,480,416,-16,-96,944,160,0,48,-656,944
16,-736,-752,352,368,-752,480,416,-16,-112,976,144,352,-224,-2480,-784
16,-768,-800,368,400,-784,480,416,-16,-112,944,160,352,-112,-3488,-2112
16,-848,-864,400,416,-848,512,448,16,-80,944,192,32,96,-4128,-3120
0,-896,-896,448,432,-912,544,480,48,-48,1008,224,-560,336,-4320,-3968
0,-928,-928,448,448,-928,544,496,48,-48,1120,224,-336,96,-4704,-5008
0,-928,-928,448,448,-928,544,496,64,-32,1088,224,176,-96,-3936,-4880
0,-928,-928,448,448,-928,544,496,64,-32,1040,240,96,-80,-2240,-3552
0,-960,-976,464,480,-976,560,512,64,-32,976,240,416,-208,-176,-1680
-16,-1008,-1008,496,496,-1008,576,512,80,-32,992,240,96,96,1952,448
0,-1040,-1040,512,512,-1040,592,544,96,0,1008,272,-96,80,3328,2112
0,-992,-992,480,480,-992,560,512,80,-32,1056,256,-144,48,3888,3008
0,-896,-896,432,448,-896,544,512,64,-32,1152,240,48,-128,3952,3440
0,-848,-848,416,416,-848,528,496,48,-48,1072,224,80,-32,4304,4416
-16,-832,-832,416,400,-832,528,496,48,-48,1040,224,-208,96,4096,4704
0,-800,-800,400,384,-800,512,480,48,-48,1072,224,-176,80,2880,3872
0,-816,-816,384,400,-832,512,496,64,-32,1120,240,-32,0,1104,2320
32,-784,-832,368,416,-800,496,480,64,-32,1040,240,256,-128,-992,368
48,-736,-800,336,416,-768,496,480,64,-32,1056,240,384,-336,-2576,-1152
64,-720,-784,320,400,-752,480,464,48,-48,1056,224,256,-48,-3552,-2416
48,-640,-688,288,352,-672,432,432,16,-80,1040,176,-160,224,-4176,-3280
32,-528,-592,240,304,-560,416,432,0,-96,1104,160,-560,272,-4672,-4288
48,-496,-560,208,288,-528,400,416,0,-96,1120,160,-176,48,-4880,-5024
64,-400,-480,144,256,-432,384,400,-16,-112,1136,144,176,-96,-3904,-4544
80,-352,-448,112,256,-400,368,400,-16,-112,1072,144,160,-80,-2000,-3120
80,-352,-464,128,256,-416,368,400,0,-96,1024,144,288,-176,224,-1136
80,-416,-512,160,288,-448,384,416,0,-96,1008,144,64,-48,2192,816
96,-400,-512,144,288,-448,384,416,0,-96,1088,160,-208,208,3536,2256
80,-352,-448,112,256,-400,368,400,16,-80,1184,160,-144,-96,4240,3088
96,-288,-400,80,240,-336,336,368,-16,-112,1168,128,192,-32,4480,3792
112,-256,-384,64,240,-320,336,368,-16,-96,1024,112,32,-64,4672,4768
112,-256,-384,64,240,-320,336,384,-16,-96,1056,128,-176,64,3872,4800
80,-288,-384,80,224,-336,336,384,-16,-96,1120,128,-80,-80,2208,3632
80,-304,-400,96,224,-352,336,400,0,-80,1120,144,-80,32,176,1856
96,-336,-448,96,256,-384,368,416,32,-48,1072,176,240,-32,-2032,-208
96,-304,-416,96,256,-352,368,416,32,-48,1088,176,416,-48,-3504,-1648
96,-240,-352,64,224,-304,336,384,0,-64,1040,144,48,-96,-4384,-2816
80,-240,-336,64,208,-288,336,400,0,-64,1040,144,-496,176,-4736,-3536
64,-240,-320,80,192,-288,352,416,16,-48,1200,160,-528,176,-5168,-4672
80,-272,-368,80,208,-320,352,416,32,-32,1168,176,176,-48,-4864,-5024
96,-256,-368,64,224,-304,352,416,48,-16,1104,192,128,-112,-3488,-4160
96,-240,-336,48,208,-288,352,416,32,-16,1008,192,128,-48,-1376,-2512
80,-240,-320,64,192,-272,352,432,48,-16,1024,208,192,-80,992,-432
80,-272,-368,80,208,-320,352,432,48,0,976,208,-128,16,2928,1520
64,-288,-352,96,208,-320,368,448,64,16,1056,224,-208,32,4016,2768
64,-256,-336,80,192,-288,352,448,64,16,1136,224,16,-16,4384,3488
96,-224,-320,48,208,-272,352,448,80,32,1040,240,128,-64,4592,4336
112,-240,-368,64,224,-304,368,464,96,64,992,272,-160,96,4624,4928
96,-256,-368,64,224,-304,352,448,96,80,976,272,-304,272,3744,4368
96,-240,-336,64,208,-304,352,448,80,48,1008,256,-48,-48,2144,2864
96,-240,-336,48,208,-288,352,448,80,48,960,256,80,-48,224,960
112,-256,-384,64,240,-320,368,480,112,80,928,288,400,-224,-1680,-800
128,-272,-400,64,240,-320,368,480,128,112,864,304,464,-160,-2944,-2128
128,-192,-320,16,208,-256,352,464,112,96,848,288,-80,16,-3792,-3152
128,-176,-304,16,208,-240,336,464,112,96,896,288,-624,256,-4288,-3968
112,-176,-304,16,192,-240,320,448,112,96,976,272,-240,96,-4816,-5136
128,-160,-304,0,208,-224,320,448,112,96,928,272,96,-48,-4160,-5088
160,-176,-336,0,240,-256,336,464,112,128,832,288,240,-64,-2400,-3808
144,-224,-368,16,240,-288,352,480,144,128,720,320,352,-128,-144,-1792
144,-192,-352,16,240,-272,320,464,128,128,704,304,80,-128,2288,432
144,-192,-336,0,240,-272,336,480,144,128,736,320,-32,128,3968,2112
144,-208,-352,16,224,-288,320,480,144,128,768,320,16,-32,4752,3104
144,-176,-336,16,224,-256,320,480,144,128,848,320,128,-48,4928,3600
144,-208,-368,16,256,-288,320,480,144,144,720,304,-48,32,5056,4528
144,-208,-368,16,240,-288,320,480,144,144,656,320,-160,32,4416,4800
144,-208,-352,16,240,-288,336,480,144,160,688,320,-192,64,2864,4032
144,-256,-400,48,256,-336,336,496,160,160,736,336,0,-32,704,2320
144,-304,-432,64,272,-368,352,512,176,176,640,336,80,-128,-1536,352
128,-336,-480,96,288,-400,368,528,192,192,624,352,352,-256,-3104,-1328
144,-336,-464,80,288,-400,368,528,192,192,592,352,336,-96,-3984,-2576
128,-304,-432,64,272,-368,352,512,176,176,560,320,-224,240,-4368,-3488
128,-208,-336,32,224,-272,320,480,160,144,624,304,-560,256,-4560,-4384
128,-192,-320,16,208,-256,320,480,160,144,640,304,-208,64,-4512,-5104
128,-112,-256,-16,176,-192,288,448,128,112,624,272,208,-64,-3376,-4512
128,-32,-176,-64,160,-112,272,416,96,96,528,240,96,-96,-1552,-2960
144,0,-144,-80,144,-80,272,416,96,80,480,224,320,-256,464,-912
128,-32,-160,-64,144,-96,288,416,112,112,432,240,-16,208,2384,1024
128,-16,-160,-80,144,-80,272,416,112,96,528,240,-192,96,3536,2416
144,-16,-176,-80,144,-96,288,432,128,112,624,256,-16,-48,4000,3120
144,-32,-176,-64,160,-112,272,416,112,112,592,240,0,-48,4080,3728
144,32,-112,-96,128,-32,256,400,96,80,416,208,-32,32,4368,4704
144,128,-16,-160,64,64,240,384,80,64,416,176,-320,112,3808,4656
160,192,32,-192,64,112,224,368,64,48,448,176,-64,0,2304,3456
176,256,80,-224,32,160,192,336,32,16,448,160,-96,32,400,1792
176,240,64,-224,48,144,208,352,64,32,400,176,288,-192,-1536,-160
160,208,48,-192,48,128,208,352,80,48,416,176,336,-144,-2880,-1664
160,192,32,-192,64,112,208,352,80,48,336,176,96,-64,-3824,-2784
160,176,16,-192,80,96,240,384,112,80,304,208,-448,192,-4384,-3488
160,160,16,-176,64,96,240,384,112,80,464,224,-464,224,-4976,-4592
160,176,0,-176,64,96,224,384,112,80,416,224,32,-80,-4864,-4992
176,176,16,-192,64,96,208,368,96,64,368,208,80,-32,-3536,-4144
160,144,-32,-160,80,48,224,368,112,64,256,208,128,-128,-1392,-2432
160,96,-64,-144,96,16,240,384,128,80,256,224,240,-32,1152,-336
160,112,-48,-144,96,32,240,384,128,96,192,240,-80,80,3216,1552
144,128,-16,-144,80,48,240,384,128,96,272,240,-192,0,4496,2752
144,160,16,-176,48,96,224,384,128,96,368,240,-64,-48,4832,3376
128,176,48,-160,16,112,224,368,128,96,272,240,160,-128,4928,4176
96,176,64,-160,16,112,224,384,128,96,224,240,-80,32,4672,4912
96,208,96,-176,0,144,208,352,112,80,224,224,-192,144,3424,4368
96,192,80,-160,0,128,224,352,112,80,224,224,48,96,1408,2832
96,192,80,-160,0,144,208,352,96,80,208,224,-64,16,-768,976
112,240,112,-192,-16,176,192,336,80,80,192,224,368,-192,-2576,-768
96,224,112,-176,-16,176,208,336,80,80,144,224,320,-96,-3616,-2048
96,256,160,-192,-48,208,176,320,64,64,144,208,32,16,-4176,-3072
80,240,160,-176,-48,192,192,320,64,64,176,208,-624,192,-4400,-3872
80,256,160,-192,-48,192,176,320,64,64,256,208,-256,64,-4624,-4992
96,240,128,-192,-16,176,176,320,64,80,224,224,208,32,-3856,-4944
112,176,64,-160,16,112,192,320,64,80,176,240,128,-48,-2160,-3712
112,160,32,-160,32,96,208,320,64,80,96,240,240,-192,-176,-1744
96,112,0,-128,32,48,192,320,48,80,80,224,64,0,1888,400
96,96,-16,-112,48,32,224,336,80,96,96,256,-160,128,3312,2112
112,144,16,-160,32,96,176,304,48,64,128,224,-32,0,3856,3088
144,160,0,-176,64,80,176,304,48,48,224,224,176,-96,3888,3536
176,160,-32,-192,96,64,160,288,32,48,128,208,48,-32,4160,4464
192,96,-112,-160,144,-16,160,304,32,48,96,208,-208,112,4032,4768
192,32,-160,-144,160,-64,176,304,48,64,144,224,-112,32,2880,4016
192,48,-160,-144,160,-48,176,304,48,64,192,224,-80,48,1152,2384
208,64,-160,-160,176,-48,176,304,48,64,112,240,112,32,-896,512
224,80,-144,-176,176,-32,160,288,48,48,112,240,464,-192,-2544,-1184
240,128,-128,-208,176,16,144,272,16,32,112,208,320,-128,-3632,-2528
256,192,-80,-240,144,64,112,240,-16,0,112,176,-272,128,-4320,-3488
240,192,-80,-240,144,64,112,240,-16,-16,176,160,-576,208,-4944,-4416
240,192,-64,-240,144,64,96,224,-16,-16,192,160,-176,32,-5072,-5184
240,224,-48,-256,128,96,96,224,-16,-32,192,160,160,32,-4048,-4720
256,240,-32,-272,128,112,96,208,-32,-32,112,160,80,-80,-2048,-3120
256,256,-16,-272,128,112,96,208,-32,-32,96,160,288,-176,272,-1120
256,256,-16,-272,112,128,96,208,-48,-48,64,144,32,-32,2544,976
240,304,48,-288,80,176,64,192,-64,-64,176,128,-304,80,4000,2480
240,336,80,-304,64,208,80,192,-64,-64,256,144,-96,-32,4560,3264
240,320,80,-304,64,208,64,176,-64,-64,240,128,128,-16,4688,3904
240,368,112,-320,48,240,48,160,-80,-80,96,128,80,-64,4768,4880
224,368,128,-320,32,256,64,160,-96,-80,128,128,-320,96,3904,4800
208,336,96,-288,32,224,64,160,-96,-80,192,112,-176,32,2096,3616
192,304,80,-272,48,192,64,160,-96,-80,208,128,-144,80,-64,1760
208,272,48,-256,64,160,96,192,-64,-64,160,160,256,-48,-2096,-288
208,256,48,-240,64,160,112,192,-64,-64,176,160,464,-176,-3376,-1824
208,320,96,-272,48,208,80,160,-96,-80,144,144,128,-128,-4000,-2928
208,320,96,-272,48,208,80,160,-96,-80,176,144,-400,176,-4176,-3648
208,288,64,-256,48,176,96,192,-80,-64,352,160,-384,208,-4512,-4752
192,208,0,-208,80,96,112,208,-48,-48,336,176,-32,-32,-4240,-5152
208,208,0,-224,80,112,128,208,-64,-64,304,176,176,-80,-2800,-4224
208,240,32,-224,80,144,112,192,-64,-64,208,176,160,-128,-848,-2480
192,208,0,-224,80,112,128,208,-64,-64,240,176,176,-128,1248,-320
192,256,48,-240,64,144,112,192,-80,-80,224,160,-96,112,2992,1616
192,240,32,-224,64,144,112,192,-80,-96,336,160,-48,96,3936,2928
176,192,16,-192,64,112,128,208,-64,-80,448,160,-96,-144,4144,3552
176,176,0,-176,80,80,128,208,-64,-80,368,160,208,-112,4304,4336
192,208,0,-208,96,112,144,224,-64,-64,336,176,-112,0,4384,4912
192,256,64,-240,64,160,128,192,-80,-96,336,160,-192,48,3504,4352
192,256,64,-240,64,160,112,192,-80,-112,384,144,-32,-96,1792,2896
176,224,48,-208,48,128,128,192,-80,-112,384,144,-96,80,-144,928
160,192,32,-192,64,112,144,208,-80,-112,384,144,416,-176,-2016,-864
176,176,0,-192,80,96,144,208,-64,-112,336,144,384,-128,-3184,-2176
176,192,0,-192,80,96,144,208,-64,-112,336,144,-48,-80,-3984,-3152
160,256,80,-224,32,160,128,192,-80,-128,400,128,-400,272,-4528,-3888
160,320,160,-256,0,240,96,160,-112,-160,512,96,-224,160,-5024,-5040
160,320,144,-240,0,224,96,160,-112,-160,480,96,80,-160,-4480,-4896
160,304,128,-240,16,208,96,160,-96,-144,432,96,144,-48,-2800,-3632
176,288,112,-240,16,192,112,176,-96,-144,320,112,240,-144,-480,-1728
176,304,128,-256,16,208,96,160,-96,-144,320,96,96,-48,1952,448
176,336,144,-256,16,224,80,160,-96,-128,352,112,-112,160,3696,2128
176,368,192,-288,-16,272,48,144,-112,-160,416,80,-32,32,4464,3008
176,416,224,-304,-32,320,32,128,-112,-160,512,80,80,0,4560,3440
192,400,192,-304,-16,304,48,128,-112,-144,416,96,80,32,4720,4400
208,416,192,-320,0,304,48,144,-96,-128,368,96,-112,32,4192,4640
224,448,208,-352,0,320,48,144,-96,-112,400,112,-176,32,2736,3856
224,496,256,-368,-16,384,32,144,-96,-128,464,96,-80,-48,704,2352
224,528,288,-400,-32,416,16,128,-112,-144,416,96,176,-16,-1472,400
224,528,272,-400,-32,400,16,144,-96,-112,416,112,384,-192,-2992,-1200
224,480,240,-368,-16,352,32,160,-80,-96,368,112,272,-128,-3888,-2544
240,512,272,-400,-16,384,16,144,-80,-96,352,112,-192,96,-4320,-3440
256,576,320,-432,-32,448,0,160,-80,-96,432,128,-592,192,-4576,-4448
272,608,336,-464,-48,480,0,160,-80,-96,480,128,-32,-80,-4560,-5104
272,688,400,-496,-64,544,-16,144,-96,-112,480,128,176,-64,-3504,-4608
272,672,384,-496,-64,528,-16,160,-80,-96,416,128,160,-32,-1584,-3024
272,624,336,-464,-32,480,16,192,-48,-64,384,144,224,-224,416,-992
288,608,320,-464,-16,464,16,208,-32,-48,336,160,-64,-32,2432,976
304,672,352,-496,-32,512,16,224,-32,-48,448,176,-160,80,3648,2352
304,720,400,-528,-64,576,16,224,-16,-32,544,176,16,-80,4096,3136
304,768,448,-544,-80,608,0,208,-48,-48,544,160,128,-128,4192,3744
304,768,448,-544,-64,608,0,224,-32,-32,416,176,-16,-16,4368,4768
304,752,432,-544,-64,592,16,256,-16,-16,448,192,-272,208,3840,4688
320,768,448,-560,-64,608,32,272,0,0,496,192,-80,-80,2352,3584
320,832,480,-592,-80,656,16,256,0,0,512,192,-128,32,464,1776
320,848,512,-608,-96,688,32,288,16,32,496,224,240,-112,-1504,-208
320,848,512,-592,-96,672,32,288,16,32,528,240,448,-176,-2832,-1728
320,832,512,-592,-96,672,32,304,16,48,496,240,96,-48,-3744,-2896
304,832,528,-592,-112,672,48,320,32,64,512,256,-544,208,-4192,-3632
320,848,512,-592,-96,688,48,336,48,80,672,272,-448,224,-4672,-4752
336,864,512,-624,-96,688,48,336,64,96,672,288,64,-32,-4624,-5104
336,864,512,-608,-96,688,64,352,64,112,656,288,192,-16,-3408,-4320
336,864,512,-608,-96,688,64,368,80,112,592,304,48,-144,-1488,-2608
320,800,480,-576,-80,640,96,400,112,144,624,320,192,-128,848,-416
336,784,448,-576,-64,608,96,416,128,160,592,352,64,48,2880,1520
352,800,448,-592,-48,624,96,416,128,176,688,352,-240,144,4064,2784
368,896,512,-640,-80,704,48,384,112,160,832,336,-112,-32,4528,3456
368,992,608,-704,-128,816,0,352,80,128,768,304,48,-96,4720,4368
368,960,592,-688,-128,784,16,384,112,144,752,320,-64,32,4592,4976
384,944,560,-672,-96,752,16,400,128,176,800,352,-144,128,3504,4512
384,896,496,-656,-64,688,32,432,160,208,832,368,-64,-16,1584,3040
416,944,528,-688,-64,736,16,416,160,208,816,384,16,0,-464,1056
432,1008,576,-736,-80,800,-16,416,144,208,848,384,288,-144,-2384,-752
448,1040,592,-768,-80,832,-32,400,144,192,816,368,416,-192,-3568,-2176
464,1088,608,-784,-80,848,-48,400,144,192,848,368,-192,16,-4336,-3232
448,1056,592,-768,-80,832,-48,416,160,208,928,384,-432,240,-4608,-3984
448,1072,608,-784,-96,848,-64,400,160,208,1056,368,-480,64,-4992,-5136
480,1152,672,-832,-112,912,-96,384,160,208,1008,368,176,32,-4272,-5056
512,1200,688,-880,-96,944,-112,368,160,208,976,368,16,-32,-2448,-3696
512,1216,704,-880,-112,960,-112,384,176,224,896,400,320,-224,-176,-1776
496,1280,768,-896,-144,1024,-144,352,144,208,928,368,160,-32,2128,432
496,1264,768,-896,-144,1008,-128,368,176,240,976,400,-240,208,3728,2160
496,1264,768,-896,-144,1024,-128,368,176,256,1024,400,-64,-32,4400,3216
512,1296,784,-912,-144,1040,-128,368,176,256,1152,416,16,-160,4352,3600
528,1328,800,-944,-144,1072,-144,352,160,240,1056,400,32,-64,4512,4528
528,1360,832,-960,-160,1088,-160,336,160,240,1040,400,-240,192,3984,4720
512,1296,784,-928,-144,1040,-128,368,192,272,1088,432,-128,176,2672,3920
496,1232,736,-880,-128,976,-112,384,208,288,1168,448,-112,0,784,2256
512,1232,720,-880,-112,976,-112,384,208,288,1088,448,32,-64,-1264,368
512,1264,752,-912,-128,1008,-128,368,208,272,1104,448,304,-96,-2752,-1280
528,1360,832,-960,-160,1088,-160,336,176,256,1104,432,368,-80,-3648,-2480
528,1440,896,-992,-192,1168,-208,288,128,208,1120,384,-288,112,-4128,-3392
512,1424,896,-992,-192,1168,-224,272,128,192,1200,384,-624,176,-4464,-4368
512,1344,816,-944,-160,1072,-192,288,144,208,1232,400,-144,64,-4560,-5072
512,1280,768,-912,-128,1024,-192,304,160,224,1232,416,224,-144,-3552,-4544
528,1280,752,-912,-112,1008,-192,304,160,208,1168,416,128,-64,-1760,-2944
528,1280,736,-928,-112,1008,-192,288,144,192,1136,400,288,-192,352,-1024
528,1296,768,-928,-128,1040,-224,256,112,160,1104,368,-64,-16,2416,928
512,1296,768,-912,-144,1024,-240,240,96,128,1232,352,-240,144,3696,2304
512,1296,768,-928,-144,1040,-256,224,96,96,1312,336,-16,48,4192,2992
512,1280,752,-912,-128,1008,-256,192,64,80,1296,304,48,-160,4352,3648
512,1264,736,-896,-112,992,-272,176,48,48,1136,288,-96,-64,4592,4608
512,1248,720,-896,-112,976,-272,160,32,32,1168,272,-320,96,3904,4672
512,1200,688,-864,-96,928,-288,144,16,0,1200,256,-112,64,2368,3520
496,1168,672,-848,-96,912,-304,112,-16,-32,1232,224,-32,-16,384,1760
480,1104,624,-800,-80,848,-272,112,-16,-32,1168,208,336,-80,-1680,-224
464,1056,592,-784,-64,816,-272,96,-16,-64,1168,192,432,-112,-3072,-1680
464,1024,560,-752,-64,800,-272,80,-48,-80,1120,176,-48,0,-3952,-2768
448,1024,560,-752,-64,784,-272,64,-48,-96,1120,160,-432,144,-4352,-3536
416,1008,576,-720,-80,784,-272,48,-80,-128,1280,128,-464,224,-4720,-4672
400,960,560,-704,-80,768,-272,16,-96,-160,1248,96,-64,-96,-4528,-5104
384,928,544,-672,-80,736,-272,0,-128,-192,1200,64,128,0,-3200,-4256
384,864,496,-640,-64,672,-256,0,-128,-192,1120,64,272,-48,-1296,-2672
368,816,448,-608,-48,624,-240,0,-144,-208,1120,48,256,-160,992,-592
352,800,432,-592,-48,624,-240,-16,-160,-240,1104,32,-128,32,2896,1424
352,800,448,-592,-48,624,-240,-32,-176,-256,1200,0,-256,192,4016,2752
320,784,448,-560,-64,608,-256,-64,-208,-288,1312,-32,-32,16,4272,3520
288,752,464,-544,-80,608,-256,-80,-224,-320,1216,-64,112,48,4432,4304
272,720,448,-512,-80,576,-224,-80,-224,-320,1184,-64,-176,48,4384,5024
240,688,448,-480,-96,560,-224,-80,-240,-336,1184,-80,-208,112,3312,4464
224,720,480,-480,-128,592,-224,-96,-256,-352,1232,-96,-112,32,1584,3040
208,688,480,-464,-144,576,-208,-112,-272,-368,1232,-112,80,48,-480,1072
192,608,416,-416,-112,512,-192,-96,-288,-368,1248,-128,400,-176,-2272,-800
192,560,368,-384,-96,464,-192,-112,-288,-384,1200,-144,416,-80,-3344,-2144
176,544,352,-384,-96,448,-176,-112,-304,-384,1200,-144,-80,0,-4048,-3136
160,496,336,-352,-96,416,-160,-96,-288,-384,1264,-144,-496,288,-4400,-3984
144,496,352,-336,-112,416,-176,-112,-304,-400,1376,-176,-464,112,-4736,-5104
128,560,416,-368,-144,496,-192,-144,-352,-448,1360,-208,112,-144,-4144,-5104
128,560,432,-352,-160,496,-208,-160,-368,-448,1312,-224,160,-80,-2512,-3856
112,496,368,-320,-128,432,-176,-144,-352,-432,1232,-208,336,-160,-432,-1936
96,400,288,-272,-96,352,-160,-128,-336,-416,1248,-192,144,48,1760,320
96,400,288,-272,-112,352,-144,-112,-336,-416,1264,-176,-208,128,3344,2016
96,432,320,-272,-112,384,-160,-144,-352,-432,1328,-192,-192,-128,4160,3104
96,384,288,-256,-112,336,-160,-128,-352,-416,1440,-192,64,-112,4320,3680
96,368,272,-240,-96,320,-160,-144,-352,-432,1344,-208,48,-32,4736,4544
96,336,240,-240,-80,288,-160,-128,-352,-416,1296,-192,-304,96,4400,4912
96,336,224,-240,-80,288,-144,-128,-352,-416,1328,-176,-192,112,3136,4112
96,368,256,-240,-96,320,-144,-128,-336,-416,1408,-176,-112,-80,1168,2432
112,368,256,-256,-80,320,-144,-128,-336,-416,1328,-176,160,-144,-944,464
112,352,240,-240,-80,304,-144,-128,-352,-416,1328,-160,480,-192,-2656,-1312
112,352,224,-240,-64,304,-144,-128,-352,-400,1312,-160,224,0,-3840,-2560
96,368,256,-240,-80,320,-144,-128,-352,-416,1296,-176,-368,128,-4496,-3536
96,352,240,-240,-80,304,-144,-112,-336,-384,1360,-144,-640,304,-4944,-4496
112,368,240,-256,-80,304,-144,-112,-336,-384,1376,-144,-224,-16,-4912,-5280
112,352,224,-240,-64,288,-128,-96,-320,-368,1360,-128,176,-208,-3760,-4736
112,336,208,-240,-64,272,-128,-96,-320,-368,1312,-128,144,-16,-1728,-3088
112,352,240,-256,-64,304,-128,-112,-320,-384,1264,-144,336,-128,640,-1024
96,352,240,-240,-80,304,-128,-96,-320,-384,1200,-128,-48,-48,2832,1024
96,368,272,-256,-96,320,-128,-96,-320,-368,1296,-128,-160,128,4176,2464
112,464,336,-304,-128,400,-144,-112,-336,-384,1360,-128,-32,32,4544,3168
112,528,400,-336,-144,464,-176,-144,-352,-416,1344,-160,32,-80,4528,3744
112,480,352,-320,-128,416,-160,-128,-336,-400,1200,-144,32,112,4560,4720
112,432,320,-288,-112,368,-144,-96,-320,-384,1184,-144,-272,80,3680,4672
96,448,352,-288,-128,400,-144,-96,-320,-384,1216,-144,-96,-48,1984,3552
96,528,416,-320,-160,464,-160,-128,-352,-416,1200,-176,-16,-16,-96,1776
112,608,496,-368,-192,544,-176,-144,-352,-416,1136,-176,352,-112,-2048,-192
128,624,496,-384,-192,544,-176,-144,-352,-432,1152,-176,432,-192,-3232,-1744
112,560,432,-352,-160,496,-160,-128,-336,-416,1104,-176,96,-16,-3872,-2864
112,544,432,-336,-160,480,-160,-112,-336,-400,1072,-160,-528,240,-4144,-3568
96,576,464,-352,-176,512,-144,-96,-320,-400,1200,-160,-496,240,-4496,-4624
112,560,432,-352,-160,496,-144,-96,-304,-400,1136,-160,64,-112,-4256,-4992
128,608,480,-384,-176,544,-160,-96,-304,-400,1088,-176,32,-176,-2976,-4160
128,608,480,-384,-176,544,-160,-96,-304,-400,992,-176,272,-144,-1024,-2480
112,576,448,-368,-176,512,-160,-96,-304,-400,992,-176,80,-64,1168,-352
96,560,448,-352,-176,512,-144,-80,-288,-400,944,-176,-112,48,2960,1584
80,560,464,-336,-192,512,-144,-80,-272,-384,1008,-160,-272,144,3920,2832
96,560,448,-352,-176,496,-128,-64,-272,-368,1088,-160,-64,16,4176,3456
112,528,416,-336,-160,464,-128,-48,-240,-352,1008,-128,112,-192,4384,4160
112,496,368,-320,-128,432,-96,-32,-224,-336,960,-128,-64,16,4384,4832
96,464,352,-304,-128,416,-112,-32,-240,-352,944,-144,-336,176,3440,4432
96,448,352,-288,-144,400,-96,-32,-224,-336,976,-144,-96,-80,1696,2960
80,432,352,-272,-144,400,-96,-16,-208,-336,928,-128,-16,48,-368,1072
80,432,336,-272,-128,384,-80,-16,-192,-320,928,-112,400,-256,-2224,-704
96,464,352,-288,-128,400,-96,-16,-208,-336,880,-112,416,-192,-3376,-2112
96,432,336,-288,-128,384,-96,-16,-208,-320,864,-112,-112,48,-4208,-3120
64,400,320,-240,-144,368,-80,0,-192,-320,912,-112,-688,384,-4528,-3904
48,400,336,-240,-160,368,-96,-16,-208,-336,992,-144,-288,144,-4912,-5008
64,416,352,-256,-160,384,-80,-16,-192,-320,960,-128,128,-128,-4272,-5024
64,448,384,-272,-160,416,-112,-32,-208,-336,880,-144,96,-112,-2480,-3808
80,496,400,-288,-176,448,-112,-32,-208,-352,800,-144,352,-176,-288,-1872
64,448,368,-272,-160,400,-112,-32,-224,-352,800,-144,144,-32,2016,336
64,368,304,-224,-128,336,-80,0,-192,-320,800,-128,-144,160,3648,2112
48,368,320,-224,-144,352,-96,-16,-208,-336,864,-144,-128,-80,4336,3056
48,400,336,-240,-160,368,-80,0,-192,-320,944,-144,64,-80,4384,3568
64,416,352,-256,-144,384,-80,0,-192,-320,832,-144,32,0,4560,4496
64,464,384,-272,-176,416,-80,0,-208,-336,800,-160,-272,144,4080,4848
48,464,416,-272,-192,432,-48,32,-208,-336,848,-176,-112,32,2752,4032
32,448,400,-256,-192,432,-32,64,-192,-320,912,-176,-96,64,816,2432
32,464,416,-272,-208,448,-16,80,-192,-336,848,-176,64,-160,-1184,480
32,512,480,-304,-224,496,0,80,-192,-336,848,-176,400,-224,-2688,-1184
32,512,464,-288,-224,480,32,112,-176,-304,816,-176,384,-16,-3568,-2512
32,544,512,-304,-240,528,48,128,-192,-304,816,-192,-240,176,-4048,-3424
16,560,528,-304,-272,544,80,176,-176,-272,912,-176,-592,176,-4352,-4416
0,576,560,-304,-288,576,96,192,-160,-256,944,-176,-128,-64,-4528,-5184
16,624,608,-336,-320,624,112,192,-176,-256,928,-176,96,-128,-3536,-4592
16,640,624,-352,-320,640,176,256,-144,-224,880,-160,-16,-32,-1760,-3120
16,688,672,-368,-336,672,192,272,-144,-208,848,-160,352,-144,336,-1056
0,736,720,-400,-368,736,224,288,-144,-176,816,-160,16,0,2320,1024
16,720,688,-384,-352,704,256,336,-112,-128,944,-128,-304,64,3552,2416
16,704,672,-384,-336,688,288,384,-64,-64,1024,-80,-32,-64,3984,3136
32,752,704,-416,-352,736,288,400,-48,-32,1040,-64,64,-48,4176,3760
64,768,704,-432,-320,736,304,432,0,48,880,0,-128,-32,4464,4720
112,800,688,-480,-304,752,304,480,80,144,896,80,-240,224,3904,4704
144,864,704,-528,-288,800,304,512,160,240,960,160,-208,64,2448,3648
176,912,720,-560,-272,816,272,560,224,352,976,240,-256,-64,464,1888
208,944,720,-592,-256,848,288,608,336,496,944,368,224,-96,-1632,-176
256,1040,768,-672,-256,912,256,640,448,640,944,480,528,-112,-3120,-1712
320,1088,752,-720,-224,928,224,704,576,816,896,608,112,-80,-4048,-2848
384,1136,736,-784,-176,928,208,800,752,1008,880,768,-432,192,-4560,-3600
448,1200,720,-848,-144,960,192,896,960,1248,1040,944,-512,192,-5072,-4656
528,1264,720,-912,-112,1008,160,976,1136,1456,1024,1120,32,-112,-4880,-5008
608,1312,672,-976,-48,992,128,1072,1344,1696,1008,1296,144,-96,-3504,-4192
704,1344,624,-1040,32,992,80,1152,1552,1920,896,1472,224,-48,-1392,-2512
800,1456,656,-1136,64,1056,32,1264,1760,2144,896,1664,224,16,1008,-512
880,1552,656,-1232,96,1104,0,1376,1984,2384,864,1840,-64,-32,3056,1408
960,1680,704,-1328,112,1200,-80,1488,2208,2624,960,2016,-272,144,4208,2640
1040,1824,768,-1456,128,1296,-128,1600,2464,2896,1088,2208,-16,32,4496,3424
1120,1920,784,-1536,160,1344,-176,1728,2688,3152,1024,2400,128,-48,4560,4144
1184,1968,768,-1584,192,1360,-160,1872,2944,3424,976,2576,48,96,4416,4896
1248,2064,800,-1664,208,1440,-192,1984,3168,3648,992,2720,-304,32,3296,4464
1296,2160,864,-1744,208,1520,-240,2048,3344,3824,1040,2848,-128,0,1392,3008
1360,2256,896,-1824,224,1584,-320,2048,3472,3984,1040,2960,-96,-80,-816,1120
1392,2304,896,-1856,224,1600,-384,2016,3584,4128,1072,3056,336,-192,-2672,-720
1376,2352,944,-1872,192,1664,-448,1968,3648,4208,1040,3104,496,-272,-3760,-2112
1376,2400,1008,-1888,160,1712,-480,1936,3712,4288,1056,3120,-16,16,-4448,-3168
1344,2432,1088,-1904,112,1760,-512,1888,3744,4304,1120,3104,-496,256,-4624,-3872
1312,2464,1136,-1904,80,1792,-544,1824,3728,4256,1232,3024,-336,144,-4896,-5072
1280,2464,1168,-1888,48,1824,-560,1744,3680,4176,1232,2928,192,-80,-4192,-4960
1232,2432,1184,-1840,0,1808,-608,1616,3600,4064,1184,2800,64,-32,-2448,-3728
1152,2304,1152,-1744,-16,1728,-640,1456,3488,3920,1120,2656,240,-80,-400,-1824
1056,2192,1136,-1632,-48,1664,-704,1264,3344,3744,1136,2496,48,-128,1952,352
960,2112,1136,-1552,-96,1632,-752,1056,3168,3552,1152,2336,-32,-48,3536,2032
848,2080,1232,-1472,-208,1664,-832,768,2880,3280,1248,2128,-112,-32,4160,3088
720,2000,1264,-1376,-272,1632,-880,464,2560,2976,1360,1888,112,-176,4176,3552
608,1840,1216,-1232,-304,1520,-928,176,2224,2640,1280,1632,128,-32,4400,4464
496,1648,1136,-1072,-320,1392,-960,-48,1904,2304,1232,1376,-144,144,4016,4816
368,1456,1088,-912,-368,1264,-992,-304,1568,1936,1264,1088,-128,80,2704,4096
240,1264,1024,-768,-400,1136,-1024,-544,1216,1536,1344,816,-48,-16,832,2480
144,1088,944,-624,-400,1008,-1056,-784,864,1168,1264,544,96,-96,-1104,528
64,896,832,-496,-384,864,-1104,-976,528,800,1280,288,432,-192,-2624,-1216
-16,704,720,-352,-368,704,-1120,-1152,192,464,1248,64,336,-208,-3552,-2480
-112,464,560,-192,-336,512,-1136,-1296,-112,144,1248,-144,-208,256,-4128,-3440
-176,272,448,-64,-304,352,-1136,-1424,-400,-128,1312,-320,-656,192,-4448,-4368
-240,176,400,16,-320,288,-1152,-1552,-672,-416,1312,-496,-96,0,-4704,-5216
-272,80,352,80,-320,208,-1152,-1632,-912,-672,1312,-656,176,-144,-3776,-4736
-304,-64,240,176,-272,80,-1136,-1680,-1136,-896,1232,-800,176,-80,-2000,-3136
-336,-224,96,272,-224,-64,-1104,-1680,-1296,-1104,1184,-912,352,-160,64,-1056
-352,-384,-48,352,-144,-224,-1072,-1648,-1424,-1264,1120,-1008,0,128,2240,960
-336,-480,-160,384,-96,-320,-1056,-1600,-1520,-1392,1200,-1072,-272,0,3696,2384
-288,-512,-224,384,-32,-368,-1024,-1536,-1584,-1488,1264,-1120,-96,0,4336,3184
-272,-592,-320,416,16,-464,-1008,-1456,-1632,-1584,1248,-1184,112,-144,4560,3824
-256,-656,-400,448,64,-528,-960,-1360,-1632,-1616,1072,-1200,-48,-16,4864,4784
-240,-736,-512,480,128,-624,-896,-1216,-1584,-1632,1072,-1184,-96,112,4240,4704
-208,-768,-560,480,176,-672,-848,-1088,-1536,-1632,1088,-1184,-96,64,2608,3584
-160,-752,-608,448,224,-688,-784,-960,-1456,-1616,1088,-1168,-144,-32,384,1888
-112,-768,-656,432,256,-720,-720,-816,-1360,-1568,1008,-1120,176,-112,-1792,-112
-80,-768,-704,416,304,-736,-672,-704,-1280,-1536,992,-1104,448,-240,-3280,-1680
-16,-752,-752,368,352,-752,-640,-576,-1184,-1488,944,-1056,160,-80,-4160,-2816
0,-800,-816,384,400,-816,-576,-448,-1088,-1424,896,-1008,-496,256,-4560,-3584
32,-816,-848,384,432,-832,-528,-336,-976,-1344,1024,-944,-432,112,-4960,-4672
64,-768,-832,336,432,-800,-496,-272,-896,-1280,976,-896,32,-112,-4592,-5056
96,-704,-816,288,448,-752,-448,-192,-816,-1232,944,-848,112,-64,-3104,-4288
112,-672,-800,256,448,-736,-416,-128,-752,-1168,816,-800,256,-96,-960,-2576
144,-672,-816,256,464,-736,-368,-64,-688,-1104,816,-736,192,-16,1376,-528
144,-608,-752,224,432,-688,-336,-16,-640,-1040,784,-704,-80,0,3376,1328
128,-528,-672,192,384,-592,-304,16,-592,-992,832,-656,-320,80,4336,2640
144,-464,-624,144,368,-544,-256,48,-528,-928,944,-608,16,-16,4480,3360
176,-368,-560,80,352,-464,-240,64,-512,-896,848,-560,176,-16,4560,4160
192,-320,-528,48,352,-432,-208,112,-464,-832,800,-512,-64,-32,4336,4848
192,-304,-496,32,336,-400,-176,128,-432,-784,816,-480,-208,32,3280,4400
192,-256,-448,16,304,-352,-144,160,-400,-752,848,-448,-16,64,1392,2960
176,-192,-384,-16,272,-288,-112,176,-368,-704,816,-416,-96,-16,-624,1152
192,-112,-320,-48,240,-208,-96,192,-352,-656,832,-384,352,-240,-2336,-704
192,-48,-256,-80,224,-144,-80,208,-336,-624,784,-352,464,-96,-3296,-2032
192,-16,-224,-112,192,-112,-48,224,-304,-592,784,-304,16,48,-3872,-3024
192,32,-160,-128,160,-48,-16,240,-272,-544,864,-272,-624,304,-4128,-3824
192,112,-80,-160,128,16,-16,256,-272,-528,992,-272,-304,48,-4640,-4928
192,160,-48,-192,112,64,0,272,-256,-496,960,-240,80,-16,-4032,-4928
208,208,-16,-224,96,96,16,288,-224,-464,912,-224,144,48,-2512,-3824
224,224,0,-240,96,128,32,304,-208,-432,832,-192,336,-80,-560,-2048
224,240,0,-240,96,128,48,320,-192,-416,880,-160,112,-32,1552,208
224,256,32,-256,80,144,64,352,-160,-384,928,-128,-224,32,3200,1888
224,256,32,-256,80,160,80,352,-144,-368,992,-128,-160,32,4064,2976
208,320,96,-272,48,208,80,368,-128,-352,1088,-112,208,-64,4224,3552
224,368,144,-304,32,256,80,368,-112,-336,1024,-96,32,-80,4576,4528
224,400,176,-320,16,288,96,368,-112,-320,1008,-80,-176,64,4320,4800
208,400,176,-320,16,304,96,368,-96,-304,1040,-80,-192,144,3136,4080
224,416,192,-336,16,304,112,384,-80,-288,1152,-64,-96,16,1232,2416
224,416,192,-336,0,304,112,384,-80,-272,1104,-48,160,-48,-1008,496
208,448,240,-336,-16,352,128,384,-64,-272,1120,-48,352,-240,-2768,-1152
224,512,304,-368,-48,400,112,384,-64,-272,1104,-48,256,-160,-3856,-2416
208,528,320,-384,-48,416,112,384,-64,-256,1120,-32,-240,128,-4608,-3408
208,512,288,-368,-48,400,128,400,-48,-224,1232,-16,-576,240,-4976,-4352
192,512,304,-368,-64,416,128,400,-48,-224,1248,0,-96,64,-5008,-5184
208,560,352,-384,-80,448,128,400,-32,-224,1280,0,192,-96,-3936,-4720
208,544,320,-384,-64,432,144,400,-32,-192,1216,16,112,-144,-1872,-3168
208,544,336,-384,-64,432,144,400,-16,-192,1168,32,416,-144,416,-1056
208,560,352,-400,-80,464,128,400,-32,-192,1152,32,16,-48,2528,1024
208,576,368,-400,-80,464,128,384,-32,-176,1280,32,-240,64,3856,2464
192,576,384,-400,-96,480,144,400,-16,-160,1360,64,-80,-48,4336,3296
176,560,368,-384,-96,464,144,400,-16,-160,1376,64,80,-96,4368,3824
192,512,320,-368,-64,416,160,416,16,-128,1232,80,32,48,4448,4736
176,496,304,-352,-64,400,176,432,32,-96,1264,112,-160,192,3680,4688
192,512,320,-368,-64,400,160,416,32,-96,1280,96,-96,64,2064,3584
192,512,320,-368,-64,416,160,416,32,-96,1344,112,-80,-64,96,1840
192,512,320,-368,-64,416,160,416,32,-80,1280,112,128,-112,-1856,-112
192,512,320,-352,-64,416,160,416,32,-80,1296,112,448,-224,-3040,-1616
192,496,320,-352,-64,416,160,416,32,-64,1248,128,192,-48,-3824,-2816
192,512,304,-352,-64,400,160,416,48,-64,1232,128,-480,208,-4160,-3584
192,560,352,-400,-80,464,160,432,48,-64,1376,128,-480,192,-4576,-4624
192,544,352,-384,-96,448,160,416,48,-64,1360,128,64,-48,-4512,-4992
192,560,368,-384,-96,464,144,416,48,-80,1328,112,176,-64,-3360,-4176
192,528,336,-368,-80,432,144,416,48,-64,1248,128,144,0,-1456,-2496
176,528,336,-368,-96,432,144,416,48,-64,1232,128,224,-80,672,-432
192,560,368,-384,-96,464,144,416,48,-64,1184,128,-96,64,2672,1440
192,576,400,-400,-112,496,128,400,32,-80,1280,112,-416,48,3872,2688
192,608,416,-416,-128,512,128,400,32,-80,1408,112,-48,-16,4400,3376
208,672,448,-448,-128,560,112,384,32,-80,1328,96,96,0,4832,4160
192,640,448,-432,-128,544,128,400,32,-64,1264,112,-96,48,4976,4896
192,640,448,-432,-128,544,112,400,48,-64,1264,112,-176,64,3888,4416
192,656,448,-432,-144,560,112,400,48,-64,1280,112,0,48,2000,3056
192,704,496,-464,-160,608,96,384,16,-80,1264,112,-48,96,-336,1136
208,736,512,-480,-160,624,80,368,0,-80,1296,96,288,-96,-2464,-688
208,720,512,-480,-160,608,80,368,16,-80,1248,96,384,-176,-3744,-2016
208,688,480,-464,-144,592,96,384,32,-64,1232,112,-80,80,-4608,-3008
208,704,480,-480,-144,592,96,384,48,-32,1280,112,-528,160,-4848,-3840
224,736,512,-496,-144,624,80,384,32,-48,1392,112,-368,16,-5088,-4992
224,768,544,-512,-160,656,80,368,32,-48,1376,112,144,-64,-4240,-5008
224,784,544,-512,-160,672,64,352,16,-48,1328,112,96,-128,-2352,-3872
224,752,512,-496,-144,640,80,368,32,-32,1248,112,320,-144,-48,-2000
224,736,496,-480,-144,608,80,368,32,-32,1264,112,48,16,2352,208
240,736,496,-496,-144,624,96,384,48,0,1280,144,-160,80,3936,2000
224,768,528,-512,-160,640,80,368,48,-16,1344,128,-112,0,4544,3104
240,784,544,-528,-160,672,64,368,48,-16,1456,128,48,-80,4336,3648
240,784,544,-528,-160,672,64,368,48,-16,1376,128,48,-80,4320,4528
240,752,512,-512,-144,640,80,368,48,-16,1360,128,-112,64,3776,4816
224,720,512,-480,-144,624,80,368,64,-16,1392,144,-160,80,2400,4064
224,736,496,-480,-144,608,96,384,64,0,1472,144,-48,64,528,2416
224,752,512,-496,-144,640,80,368,64,0,1424,160,144,-80,-1344,512
240,784,544,-528,-160,656,64,368,64,0,1440,144,400,-240,-2640,-1056
224,736,512,-496,-144,624,80,368,64,0,1440,160,256,-112,-3424,-2384
224,704,480,-480,-144,608,80,368,64,0,1456,144,-288,96,-3856,-3328
224,688,464,-464,-128,592,96,384,96,16,1536,160,-512,304,-4224,-4320
224,720,496,-496,-144,624,80,368,80,16,1568,160,-192,128,-4480,-5152
224,752,528,-512,-160,640,64,368,80,16,1600,160,192,-80,-3728,-4672
224,752,528,-512,-160,640,80,368,80,16,1552,176,160,-48,-2128,-3088
208,704,496,-464,-144,608,80,368,96,16,1520,176,368,-192,-192,-1072
224,720,480,-480,-144,608,80,368,96,32,1488,176,0,16,1840,976
224,704,480,-480,-128,592,80,384,96,32,1616,192,-224,160,3216,2448
224,720,496,-480,-144,608,80,384,112,64,1696,208,-160,-16,3808,3168
224,752,512,-496,-144,640,64,368,112,48,1712,192,192,-112,4256,3712
240,752,512,-512,-144,640,64,368,96,64,1584,192,-32,32,4736,4672
224,752,528,-512,-160,640,64,368,112,64,1616,208,-224,16,4400,4720
224,736,512,-496,-144,624,48,384,112,64,1664,208,-112,0,2896,3616
208,720,496,-480,-144,608,64,384,112,80,1712,208,-176,64,816,1888
240,736,480,-496,-128,608,64,384,128,80,1632,224,256,-80,-1440,-160
240,752,496,-512,-144,624,64,384,128,96,1680,224,528,-224,-3072,-1664
256,752,480,-528,-128,624,48,368,128,96,1664,224,160,-80,-4256,-2896
256,752,496,-512,-128,624,32,368,128,96,1664,224,-496,112,-4848,-3600
240,752,528,-512,-160,640,48,384,144,112,1824,240,-464,80,-5392,-4608
240,752,496,-512,-144,624,48,384,144,112,1824,240,0,-80,-5152,-5008
256,752,480,-512,-128,624,48,384,160,128,1824,256,128,-144,-3632,-4176
256,736,464,-512,-112,608,48,384,160,128,1712,256,192,-80,-1456,-2560
256,752,480,-528,-112,624,32,384,144,128,1728,256,368,-80,992,-464
256,768,496,-528,-128,640,32,384,144,128,1728,240,-48,64,3056,1360
256,768,512,-528,-144,640,16,368,144,128,1824,240,-304,160,4240,2656
256,784,512,-528,-144,656,16,368,160,128,1952,256,-64,-32,4480,3344
272,784,496,-544,-128,640,16,368,160,128,1888,256,160,-128,4464,4128
288,784,512,-544,-112,656,16,384,176,144,1840,272,-32,48,4240,4928
304,832,512,-576,-112,656,16,384,176,160,1872,288,-256,112,3056,4464
288,784,496,-544,-112,624,16,384,176,176,1936,288,-48,-64,1072,3072
272,800,512,-544,-128,656,16,384,176,160,1936,288,16,-64,-832,1168
288,800,512,-560,-128,656,16,384,192,176,1968,288,368,-144,-2496,-704
288,848,544,-592,-128,704,-16,368,176,160,1936,288,416,-96,-3440,-2080
304,896,592,-608,-160,752,-16,352,176,160,1968,288,-64,64,-3936,-3104
288,896,592,-608,-160,752,-16,368,176,192,2080,304,-560,240,-4112,-3904
288,864,576,-592,-160,736,-32,368,192,192,2224,304,-336,64,-4416,-5024
304,896,576,-608,-144,736,-32,368,192,208,2208,320,112,-112,-3840,-5056
304,880,576,-608,-128,720,-16,384,208,224,2192,352,160,-80,-2384,-3872
304,880,576,-608,-128,720,-16,384,208,240,2128,352,336,-192,-480,-2000
304,912,592,-624,-144,752,-32,368,208,240,2192,352,112,80,1648,208
304,928,608,-624,-144,768,-48,384,224,256,2240,368,-160,32,3312,1968
320,928,608,-640,-144,768,-64,368,208,256,2368,368,-144,48,4144,3024
320,944,608,-640,-144,768,-48,384,224,272,2496,384,64,-32,4448,3600
320,944,608,-640,-144,768,-48,384,240,288,2448,400,64,-144,4864,4464
320,944,608,-640,-144,768,-64,384,240,304,2448,416,-112,64,4720,4816
336,960,608,-656,-144,784,-64,384,256,320,2544,432,-240,112,3488,4032
336,960,608,-656,-144,784,-80,384,256,336,2656,448,-80,64,1552,2480
336,944,592,-656,-128,768,-80,384,256,336,2656,448,96,-112,-640,512
336,928,592,-640,-128,752,-80,400,288,352,2688,480,368,-192,-2400,-1136
320,928,592,-640,-128,752,-64,416,304,384,2704,496,384,-224,-3616,-2464
352,944,592,-656,-128,768,-80,400,304,384,2752,512,-256,96,-4320,-3376
352,976,592,-672,-128,784,-96,400,304,384,2848,512,-544,272,-4816,-4304
352,976,608,-672,-128,800,-112,400,304,400,2928,528,-160,48,-5008,-5184
368,992,608,-688,-128,800,-112,400,320,400,2976,528,80,-96,-3872,-4704
368,976,592,-672,-112,784,-112,400,336,416,2928,544,128,-128,-1824,-3168
368,960,576,-672,-112,768,-96,416,352,432,2912,576,288,-48,512,-1152
384,976,576,-688,-96,768,-128,416,352,448,2896,576,80,80,2768,976
384,1008,608,-720,-112,800,-144,416,352,432,3040,592,-128,112,4240,2448
384,1040,640,-720,-128,832,-144,416,368,448,3136,608,-80,32,4736,3152
384,1024,640,-720,-128,832,-160,416,384,448,3184,608,160,-32,4688,3744
384,1008,624,-720,-112,816,-144,416,384,480,3040,624,-48,0,4704,4704
400,1008,608,-720,-112,816,-144,416,416,496,3056,656,-208,48,3968,4704
400,1040,624,-752,-112,832,-160,432,416,496,3120,656,-48,0,2256,3616
416,1088,656,-768,-128,864,-192,400,416,496,3152,656,-48,16,272,1808
432,1088,672,-784,-112,880,-192,416,432,496,3104,672,224,-176,-1840,-224
416,1088,656,-768,-112,880,-192,416,448,512,3136,688,416,-80,-3168,-1728
448,1104,656,-784,-112,880,-208,416,448,528,3104,704,112,-64,-3936,-2896
432,1088,640,-784,-112,864,-208,432,480,560,3072,736,-320,96,-4208,-3632
432,1120,672,-784,-128,880,-208,432,496,576,3216,752,-512,192,-4560,-4640
448,1152,704,-800,-128,928,-240,416,496,576,3200,752,-48,-80,-4336,-5008
448,1184,720,-832,-144,960,-256,416,496,576,3168,752,128,-96,-3104,-4096
464,1168,704,-832,-128,928,-256,416,512,608,3088,768,224,-16,-1152,-2432
464,1152,688,-816,-112,912,-256,432,528,624,3088,800,240,-144,1024,-400
464,1152,688,-816,-112,912,-256,432,560,656,3040,816,-32,-32,2896,1488
464,1184,704,-832,-128,944,-272,432,560,672,3136,832,-256,144,4000,2736
496,1248,736,-880,-128,992,-304,432,576,672,3264,848,-80,-160,4336,3328
512,1264,752,-896,-128,1008,-320,416,576,688,3200,864,208,-16,4528,4016
496,1248,736,-880,-128,992,-304,432,608,720,3136,880,-64,16,4528,4768
496,1248,736,-880,-128,976,-336,432,624,736,3152,896,-240,16,3568,4336
496,1248,752,-896,-128,992,-336,448,640,752,3184,928,32,48,1840,2976
512,1296,768,-928,-144,1040,-368,432,656,768,3168,944,-16,0,-224,1104
528,1344,800,-960,-144,1072,-368,432,656,768,3184,960,288,-160,-2128,-688
560,1376,800,-976,-128,1088,-400,416,672,768,3152,960,416,-96,-3360,-2000
560,1376,800,-976,-128,1072,-416,432,704,800,3152,992,16,0,-4128,-2912
560,1376,800,-976,-128,1088,-416,448,736,848,3200,1024,-560,176,-4496,-3712
576,1408,816,-992,-128,1104,-432,432,736,864,3328,1040,-272,208,-4928,-4784
592,1456,864,-1040,-144,1168,-464,432,752,880,3280,1056,80,-176,-4368,-4928
608,1504,896,-1072,-144,1200,-496,416,752,880,3248,1072,64,-80,-2704,-3824
624,1520,880,-1072,-144,1200,-496,432,784,896,3152,1088,256,-144,-592,-2112
624,1488,864,-1056,-128,1168,-512,432,800,928,3184,1104,192,-48,1696,80
624,1488,864,-1072,-128,1168,-528,448,832,960,3136,1152,-112,112,3360,1824
640,1520,896,-1088,-144,1216,-560,432,848,976,3216,1168,-32,-80,4096,2912
656,1600,944,-1136,-160,1264,-576,432,848,992,3296,1184,112,-64,4256,3568
672,1648,976,-1168,-160,1312,-608,416,864,1008,3200,1184,112,0,4480,4496
688,1648,960,-1184,-144,1312,-624,432,880,1024,3184,1216,-144,144,4016,4912
688,1616,944,-1168,-128,1296,-624,448,912,1056,3184,1248,-128,80,2768,4176
688,1632,944,-1168,-128,1280,-640,448,944,1104,3216,1280,-112,-16,880,2640
720,1664,944,-1200,-128,1296,-656,448,960,1120,3120,1296,16,-96,-1200,624
736,1696,960,-1232,-128,1328,-672,448,976,1136,3120,1312,416,-224,-2736,-1072
736,1728,976,-1248,-128,1360,-688,464,992,1152,3072,1344,320,-128,-3648,-2368
736,1712,976,-1248,-128,1344,-704,464,1008,1168,3072,1360,-208,192,-4112,-3376
736,1696,960,-1232,-112,1328,-704,480,1040,1216,3120,1392,-528,256,-4512,-4368
752,1712,960,-1248,-112,1344,-720,480,1056,1232,3104,1424,-272,96,-4752,-5184
768,1760,992,-1280,-112,1376,-736,496,1072,1264,3072,1440,112,0,-3856,-4784
784,1792,1008,-1296,-112,1408,-752,496,1088,1280,2976,1456,112,-208,-2032,-3328
800,1792,992,-1312,-112,1392,-752,496,1104,1296,2896,1488,256,-208,80,-1296
800,1776,976,-1312,-96,1392,-768,512,1120,1312,2848,1504,16,16,2224,960
800,1776,960,-1296,-96,1376,-752,528,1152,1328,2944,1520,-208,128,3584,2416
816,1776,976,-1312,-96,1376,-752,544,1184,1360,2960,1552,0,-16,4192,3328
832,1824,992,-1344,-80,1408,-784,544,1184,1376,2944,1552,176,-64,4400,3888
848,1856,992,-1360,-80,1424,-800,544,1200,1392,2768,1568,-48,16,4736,4832
848,1856,1008,-1360,-80,1424,-800,544,1200,1408,2752,1584,-224,128,4208,4880
848,1840,992,-1360,-80,1424,-800,560,1216,1408,2784,1584,-112,0,2720,3760
832,1824,976,-1344,-80,1408,-816,560,1232,1424,2784,1584,-96,-96,704,2048
832,1824,976,-1344,-80,1408,-800,576,1264,1440,2672,1616,272,-160,-1472,-32
848,1856,1008,-1360,-80,1440,-800,592,1280,1456,2672,1632,432,-144,-2912,-1696
880,1888,1008,-1392,-80,1456,-832,592,1280,1456,2624,1616,224,-64,-4032,-2880
880,1888,1008,-1392,-80,1440,-832,592,1280,1456,2592,1632,-432,208,-4608,-3712
864,1872,992,-1392,-80,1440,-832,608,1312,1472,2704,1648,-480,160,-5152,-4752
864,1840,976,-1360,-64,1408,-832,624,1328,1472,2656,1648,80,-16,-5008,-5168
864,1872,992,-1376,-64,1424,-832,640,1328,1488,2592,1664,192,-80,-3552,-4272
880,1872,992,-1392,-64,1440,-832,640,1344,1504,2464,1680,208,-48,-1376,-2480
880,1888,992,-1392,-64,1440,-832,656,1360,1504,2448,1680,208,-176,1056,-480
880,1888,992,-1392,-64,1440,-848,672,1360,1520,2384,1680,-80,-64,3184,1456
880,1888,992,-1408,-64,1456,-848,672,1376,1520,2448,1680,-128,96,4320,2688
880,1856,976,-1392,-64,1424,-832,704,1392,1536,2560,1696,-64,48,4752,3424
896,1872,976,-1392,-48,1424,-832,704,1408,1552,2432,1696,96,-48,4752,4192
896,1872,960,-1392,-48,1408,-816,736,1424,1568,2336,1728,-64,64,4608,4912
896,1856,960,-1392,-48,1408,-816,752,1424,1584,2320,1728,-208,48,3392,4464
896,1840,928,-1376,-32,1392,-816,768,1440,1584,2336,1728,-112,16,1408,3072
880,1808,912,-1360,-16,1344,-800,800,1440,1600,2304,1728,-192,64,-816,1120
880,1776,896,-1344,-16,1328,-784,816,1472,1600,2288,1744,288,-128,-2720,-784
880,1776,880,-1344,0,1328,-784,832,1472,1616,2224,1744,448,-176,-3712,-2128
896,1776,880,-1344,0,1328,-768,848,1472,1616,2192,1744,-32,-112,-4288,-3152
880,1776,880,-1344,0,1328,-768,880,1472,1600,2224,1744,-544,192,-4352,-3856
880,1760,864,-1344,0,1312,-768,880,1472,1584,2336,1728,-352,144,-4608,-4912
880,1728,832,-1312,16,1280,-736,912,1488,1600,2272,1728,-32,-144,-4048,-4912
880,1680,800,-1296,32,1248,-720,944,1488,1584,2192,1712,96,0,-2400,-3744
880,1648,752,-1264,48,1200,-688,960,1488,1584,2080,1696,304,-192,-464,-1888
880,1632,752,-1264,48,1200,-688,976,1472,1552,2080,1680,112,-80,1552,304
880,1632,752,-1264,48,1184,-656,1008,1472,1552,2080,1664,-128,48,3008,2000
864,1616,752,-1248,48,1184,-656,1008,1456,1520,2112,1632,-144,0,3568,3072
848,1600,736,-1232,48,1168,-624,1040,1456,1488,2192,1600,-32,-128,3680,3536
832,1552,704,-1216,64,1136,-608,1056,1440,1472,2080,1568,80,48,3968,4400
832,1520,672,-1184,64,1104,-576,1072,1440,1456,2016,1536,-208,144,3840,4752
816,1504,672,-1168,64,1088,-560,1088,1424,1424,2016,1504,-80,48,2736,3968
816,1488,672,-1168,48,1072,-544,1104,1408,1392,2064,1472,-80,32,1040,2400
800,1472,672,-1152,64,1072,-512,1120,1392,1360,1984,1440,112,-128,-800,544
800,1440,624,-1120,64,1024,-480,1136,1376,1328,1968,1392,448,-240,-2368,-1088
752,1360,592,-1072,80,976,-432,1152,1360,1312,1920,1360,304,-32,-3360,-2304
752,1344,576,-1056,64,960,-416,1168,1328,1280,1872,1312,-224,192,-4032,-3264
736,1344,592,-1056,64,960,-384,1184,1312,1248,1920,1296,-544,256,-4496,-4176
720,1328,592,-1040,48,960,-368,1184,1280,1200,1936,1248,-144,48,-4832,-5104
704,1296,592,-1008,48,944,-336,1200,1264,1184,1904,1200,224,-128,-3952,-4736
688,1264,560,-992,64,912,-304,1200,1232,1136,1840,1168,144,-80,-2160,-3232
656,1152,496,-928,64,816,-256,1216,1216,1120,1760,1136,336,-144,64,-1200
640,1136,480,-912,80,800,-224,1232,1184,1104,1680,1104,32,80,2320,880
640,1120,480,-896,80,800,-192,1232,1168,1056,1744,1072,-336,96,3840,2368
608,1120,496,-880,48,800,-160,1232,1136,1024,1808,1040,-32,16,4480,3200
592,1104,496,-864,32,800,-144,1216,1088,976,1808,992,128,-160,4688,3648
576,1040,448,-816,48,736,-112,1216,1056,960,1616,944,-32,-64,4832,4752
544,960,416,-768,64,688,-80,1232,1040,928,1584,928,-144,144,4224,4752
512,928,400,-736,48,656,-48,1232,1008,896,1600,912,-144,80,2544,3760
496,928,416,-736,48,672,-32,1216,976,864,1600,864,-176,32,464,1984
512,928,416,-736,48,672,-16,1200,928,832,1504,832,176,-112,-1712,48
480,896,416,-704,32,656,16,1184,896,784,1504,784,448,-208,-3168,-1520
432,832,384,-656,16,608,48,1184,864,752,1424,752,144,-64,-4032,-2800
416,784,352,-624,32,576,80,1184,848,736,1360,736,-384,112,-4400,-3600
400,768,368,-608,16,576,96,1184,816,720,1456,704,-544,192,-4800,-4800
400,784,384,-608,0,576,112,1152,784,672,1392,672,48,32,-4432,-5184
384,768,384,-592,0,576,128,1136,736,640,1344,624,48,-48,-3088,-4352
352,720,368,-544,-16,544,144,1120,688,592,1200,592,192,-48,-1136,-2688
320,672,336,-512,-16,496,176,1104,672,576,1152,560,176,-32,1120,-528
304,624,304,-480,-16,464,208,1104,640,544,1072,528,-112,16,3072,1456
304,624,320,-480,-16,480,224,1088,624,528,1104,496,-304,16,4048,2704
304,640,336,-496,-32,496,224,1056,576,480,1184,464,-16,-128,4304,3456
288,640,352,-480,-32,496,224,1024,528,448,1056,416,192,16,4432,4208
256,592,320,-448,-32,464,256,1024,512,432,960,400,-48,128,4480,4976
224,528,288,-384,-48,400,288,1008,480,400,912,368,-320,96,3552,4576
176,464,272,-336,-64,384,304,992,464,368,896,336,-96,-80,1824,3088
192,496,288,-368,-48,400,320,960,432,336,816,304,-64,112,-80,1232
208,512,288,-368,-48,400,320,944,400,304,768,272,304,-176,-1936,-640
192,496,288,-368,-48,400,320,896,352,256,704,224,432,-224,-3152,-2080
160,448,272,-320,-48,368,336,880,320,240,640,192,0,64,-3936,-3104
160,416,256,-304,-48,336,352,880,304,224,672,176,-528,224,-4352,-3872
112,352,224,-256,-48,288,368,864,288,208,736,160,-352,80,-4848,-5008
112,352,224,-256,-48,288,384,848,272,192,640,144,128,-80,-4384,-4976
112,352,224,-256,-48,288,368,800,240,160,560,112,144,-48,-2832,-3840
112,320,208,-240,-48,272,384,784,208,144,432,80,224,-208,-752,-2048
80,288,192,-192,-48,240,384,768,176,112,416,64,160,-64,1696,208
48,224,160,-160,-48,192,416,752,160,112,384,48,-64,144,3472,1968
32,208,144,-144,-48,176,416,736,144,80,400,16,-320,-48,4352,3040
48,208,144,-160,-48,176,400,720,128,64,464,0,80,-48,4624,3536
48,208,144,-144,-48,176,400,688,96,48,352,-16,80,-128,4896,4480
32,176,144,-128,-64,160,400,672,80,32,304,-32,-256,48,4512,4864
16,144,112,-96,-48,128,416,672,64,16,304,-48,-176,48,3184,4128
16,96,80,-80,-32,96,416,656,64,16,320,-48,-112,-16,1040,2528
0,80,80,-48,-48,80,416,624,32,0,224,-80,0,-96,-1200,592
0,80,80,-64,-48,80,416,608,16,-16,192,-80,400,-288,-2928,-1168
16,96,80,-64,-32,80,416,592,0,-32,144,-96,336,-208,-3936,-2432
0,80,80,-64,-32,80,416,576,-16,-48,128,-112,-224,208,-4480,-3392
-16,48,64,-32,-48,48,432,560,-32,-48,192,-128,-608,192,-4640,-4288
-32,32,64,-16,-48,32,416,544,-48,-64,176,-144,-192,-32,-4736,-5184
-16,32,48,-16,-48,32,416,528,-48,-64,160,-160,192,-160,-3744,-4816
-16,48,48,-32,-32,48,416,512,-64,-80,64,-160,16,-96,-1760,-3328
-16,32,48,-32,-32,32,416,496,-64,-80,16,-160,272,-112,416,-1168
-16,16,32,-16,-32,16,416,480,-96,-96,-32,-176,64,16,2480,912
-32,0,32,0,-32,16,432,480,-96,-96,96,-176,-272,64,3792,2432
-32,-16,16,16,-32,0,432,480,-96,-80,112,-176,-128,-16,4256,3264
-32,0,32,16,-32,0,416,448,-112,-96,128,-192,176,-176,4304,3792
-16,16,32,-16,-32,32,400,432,-144,-112,-64,-208,144,16,4400,4736
-16,16,32,0,-32,16,416,416,-144,-112,-64,-208,-64,144,3776,4640
-32,16,32,0,-48,16,400,400,-160,-112,-16,-224,-112,16,2304,3632
-48,-16,16,16,-48,0,400,384,-160,-128,16,-240,-128,16,352,1904
-16,0,16,0,-32,16,400,384,-176,-128,-80,-240,208,-32,-1664,-48
-32,-16,16,16,-32,0,400,368,-176,-144,-96,-256,448,-176,-3056,-1552
-16,0,16,0,-16,0,400,368,-176,-144,-128,-240,128,-64,-3936,-2768
-16,16,32,0,-32,32,384,336,-192,-144,-160,-256,-384,144,-4304,-3584
-32,16,48,0,-48,32,368,336,-192,-144,-32,-256,-432,272,-4640,-4640
-32,0,32,0,-48,16,368,320,-224,-160,-64,-272,-32,16,-4560,-5168
-48,16,48,0,-48,16,368,304,-224,-160,-144,-288,176,-112,-3296,-4368
-48,0,48,0,-48,32,368,304,-224,-176,-256,-288,144,16,-1344,-2688
-48,16,48,0,-48,32,352,304,-224,-176,-288,-288,240,80,864,-512
-32,32,64,0,-64,48,352,288,-240,-192,-352,-304,-112,48,2752,1360
-48,32,80,-16,-64,64,336,272,-256,-208,-272,-320,-144,-48,3792,2688
-48,32,96,0,-80,64,336,272,-256,-208,-176,-320,16,48,4144,3392
-48,32,80,0,-80,48,320,256,-256,-208,-304,-320,112,-16,4272,4160
-48,32,80,0,-80,48,336,272,-240,-192,-400,-304,-16,48,4352,4944
-48,48,96,-16,-80,80,336,256,-256,-208,-416,-304,-304,208,3488,4560
-48,80,112,-32,-80,80,320,240,-272,-208,-400,-304,-64,0,1808,3216
-64,80,128,-16,-96,96,320,240,-272,-208,-432,-304,-80,64,-192,1328
-64,48,112,-16,-96,80,320,240,-272,-224,-448,-304,448,-256,-2112,-592
-64,48,96,0,-96,80,304,224,-272,-224,-528,-304,480,-176,-3280,-2032
-64,48,96,0,-96,80,320,240,-272,-208,-576,-288,-32,16,-4016,-3104
-64,64,112,-16,-96,96,320,240,-272,-208,-544,-288,-464,224,-4336,-3840
-32,96,144,-48,-96,128,288,224,-272,-224,-448,-288,-352,208,-4704,-5008
-32,112,128,-64,-96,128,288,224,-288,-224,-512,-304,64,-192,-4176,-5056
-48,112,144,-48,-112,128,288,224,-288,-224,-544,-304,48,-48,-2688,-3904
-80,48,112,-16,-96,96,304,240,-288,-208,-688,-304,320,-160,-608,-2032
-64,48,112,-16,-96,80,304,240,-288,-224,-688,-288,176,-16,1712,160
-48,96,128,-48,-96,112,304,240,-288,-208,-736,-288,-96,144,3392,1952
-48,112,144,-48,-112,128,288,240,-304,-224,-656,-304,-96,64,4240,3056
-48,128,176,-64,-112,144,272,224,-304,-240,-592,-320,16,-160,4432,3584
-32,112,144,-64,-96,128,288,240,-304,-224,-672,-320,112,-112,4704,4544
-16,112,144,-80,-80,128,288,240,-304,-224,-736,-320,-160,80,4480,4880
-48,96,128,-48,-96,112,304,272,-288,-208,-752,-320,-240,144,3248,4112
-48,112,144,-48,-96,128,288,272,-288,-224,-720,-304,-64,0,1296,2512
-32,128,160,-64,-112,144,288,256,-304,-224,-784,-320,16,-64,-816,560
-32,128,144,-80,-96,144,288,272,-304,-224,-800,-320,400,-176,-2496,-1104
-16,96,112,-64,-80,112,288,288,-304,-224,-848,-320,304,-48,-3568,-2368
-48,64,112,-32,-80,96,304,304,-304,-208,-864,-320,-272,176,-4304,-3312
-48,80,112,-32,-80,96,304,304,-288,-208,-800,-320,-544,240,-4736,-4176
-32,96,128,-64,-80,112,288,304,-304,-208,-800,-320,-160,-64,-4880,-5088
-32,112,144,-64,-96,144,288,304,-304,-224,-800,-320,112,-128,-3904,-4720
-48,96,144,-48,-96,128,304,304,-304,-224,-896,-320,32,-96,-1968,-3232
-48,48,96,-32,-80,80,304,320,-304,-208,-960,-320,336,-128,272,-1232
-48,32,80,-16,-80,64,304,320,-304,-208,-1024,-320,64,128,2448,848
-48,64,96,-32,-64,80,320,336,-288,-208,-944,-304,-304,160,3888,2304
-32,96,128,-48,-80,112,304,336,-272,-192,-912,-288,-112,-48,4416,3104
-32,112,128,-64,-96,128,304,320,-304,-208,-880,-320,80,-128,4480,3632
-48,80,112,-32,-80,96,288,304,-304,-208,-1072,-320,16,-80,4656,4624
-48,48,96,-16,-80,80,304,336,-288,-208,-1088,-304,-160,224,3984,4624
-64,48,96,-16,-80,64,320,336,-288,-192,-1104,-304,-80,16,2432,3568
-64,64,112,-16,-96,96,304,320,-288,-208,-1104,-304,-128,160,416,1920
-48,96,128,-48,-96,128,304,320,-304,-208,-1216,-304,96,-64,-1664,0
-32,112,144,-64,-96,128,288,320,-304,-224,-1232,-304,432,-176,-3040,-1520
-32,112,128,-64,-80,112,288,320,-304,-224,-1312,-304,192,-48,-3920,-2800
-48,96,128,-48,-96,112,288,320,-304,-208,-1392,-304,-336,224,-4368,-3632
-48,80,112,-32,-96,96,304,336,-272,-192,-1312,-288,-608,208,-4736,-4656
-64,80,144,-32,-112,128,304,336,-288,-192,-1392,-288,48,-48,-4576,-5136
-48,128,176,-64,-112,160,272,320,-304,-224,-1472,-304,64,-112,-3344,-4368
-32,112,144,-64,-96,128,288,320,-288,-224,-1584,-304,144,-96,-1344,-2704
-32,112,128,-48,-96,128,288,320,-304,-224,-1632,-304,144,-48,992,-624
-48,80,128,-32,-96,112,288,336,-288,-224,-1712,-304,0,48,2896,1296
-32,128,160,-64,-112,144,288,336,-288,-224,-1680,-304,-176,96,4048,2608
-48,128,160,-48,-112,144,288,336,-288,-240,-1600,-304,-64,32,4352,3312
-16,160,176,-96,-112,176,272,336,-288,-240,-1696,-304,144,-192,4480,4144
-16,160,176,-80,-112,176,272,336,-272,-240,-1808,-304,-48,64,4464,4928
-32,128,160,-64,-112,160,288,352,-272,-240,-1808,-320,-224,64,3440,4576
-48,112,160,-48,-112,144,304,368,-256,-224,-1808,-304,0,-112,1680,3264
-48,128,160,-64,-112,160,304,384,-240,-208,-1856,-304,-16,48,-416,1360
-16,160,176,-96,-112,176,304,400,-224,-208,-1872,-288,304,-176,-2240,-624
-16,192,208,-112,-112,208,288,400,-240,-208,-1920,-304,352,-112,-3360,-2064
-16,192,208,-96,-128,208,288,400,-240,-208,-1952,-304,32,16,-4080,-3136
-32,176,208,-80,-128,192,304,432,-224,-192,-1920,-304,-464,272,-4320,-3856
-32,176,224,-96,-128,208,320,448,-192,-160,-1808,-288,-432,176,-4640,-5008
-32,208,240,-112,-144,224,336,480,-160,-144,-1872,-272,112,-208,-4160,-5088
-16,256,272,-128,-144,256,336,496,-160,-144,-1936,-256,176,-32,-2592,-3952
0,272,272,-144,-144,288,336,528,-144,-112,-2048,-240,336,-112,-528,-2144
0,288,288,-160,-144,288,336,544,-128,-96,-2016,-224,144,48,1616,16
-16,272,288,-144,-160,288,368,592,-80,-64,-2048,-208,-144,64,3312,1824
-32,288,304,-144,-176,304,368,624,-64,-32,-1968,-192,-176,0,4064,2928
-16,320,336,-160,-176,336,384,656,-16,0,-1904,-160,48,32,4144,3536
-16,352,368,-176,-192,368,384,688,0,32,-1968,-144,64,-80,4432,4480
-32,368,384,-176,-208,384,384,704,0,48,-2000,-144,-256,96,4176,4912
-32,384,400,-192,-224,400,400,752,32,80,-1968,-112,-160,112,3072,4240
-48,384,416,-176,-224,400,432,784,64,96,-1904,-80,-32,-80,1264,2560
-48,400,432,-192,-240,416,448,832,96,128,-1952,-48,-32,16,-768,608
-16,448,448,-224,-240,448,464,880,128,176,-1936,-16,352,-256,-2352,-1104
-16,480,496,-240,-256,480,464,928,160,192,-1952,0,352,-144,-3456,-2368
-16,512,528,-272,-272,528,480,960,176,224,-1920,16,-240,208,-4224,-3296
-16,528,528,-256,-272,528,496,1024,208,256,-1808,48,-576,240,-4768,-4256
-32,560,576,-272,-304,576,512,1056,224,288,-1760,64,-176,48,-5056,-5168
-48,576,624,-288,-336,608,544,1104,256,336,-1744,112,112,-64,-4160,-4752
-32,672,688,-336,-352,672,560,1152,288,384,-1808,144,112,-48,-2256,-3280
-48,672,704,-320,-384,672,592,1200,320,432,-1808,176,256,-192,-32,-1248
-32,736,768,-368,-400,752,608,1232,336,464,-1792,224,-16,64,2400,816
-48,800,848,-384,-448,832,624,1280,368,528,-1632,272,-192,208,4032,2320
-64,864,928,-416,-496,896,656,1328,416,608,-1536,336,-64,-80,4752,3232
-80,944,1008,-432,-560,976,688,1360,432,672,-1456,384,128,-80,4896,3712
-80,1024,1088,-480,-592,1056,704,1376,448,736,-1584,448,112,128,4960,4704
-80,1120,1200,-528,-640,1168,736,1408,480,816,-1520,528,-128,128,4256,4752
-112,1216,1328,-560,-720,1264,736,1440,512,880,-1424,592,-128,-32,2448,3792
-128,1328,1440,-608,-784,1376,752,1456,528,960,-1328,656,-48,16,256,2064
-144,1424,1552,-656,-848,1488,768,1472,576,1056,-1360,752,288,-96,-1888,32
-160,1536,1696,-704,-944,1616,784,1472,592,1152,-1312,832,448,-160,-3312,-1552
-176,1680,1856,-768,-1024,1776,800,1456,608,1248,-1296,912,160,-48,-4112,-2816
-192,1840,2016,-832,-1104,1920,800,1424,608,1344,-1264,1008,-400,176,-4432,-3520
-224,2000,2208,-896,-1216,2112,800,1408,624,1456,-1072,1120,-432,160,-4688,-4608
-240,2144,2384,-960,-1312,2272,784,1376,624,1552,-1040,1200,-16,-112,-4432,-4992
-272,2288,2544,-1008,-1408,2416,784,1328,624,1664,-1008,1296,160,-80,-3024,-4352
-272,2432,2688,-1088,-1488,2560,784,1264,640,1776,-1056,1408,256,-64,-976,-2672
-272,2592,2864,-1168,-1584,2720,768,1184,624,1888,-1040,1536,272,-144,1152,-640
-304,2768,3056,-1248,-1696,2912,736,1056,576,1984,-1024,1632,-96,80,2976,1280
-320,2960,3280,-1328,-1808,3120,688,912,528,2080,-880,1728,-288,48,3856,2528
-352,3120,3472,-1392,-1920,3296,656,768,480,2176,-704,1824,-160,16,4096,3232
-384,3264,3632,-1456,-2016,3456,624,624,448,2272,-736,1936,128,-32,4128,4048
-400,3408,3808,-1504,-2096,3600,592,480,400,2368,-784,2048,-16,112,4176,4896
-416,3568,3968,-1584,-2192,3760,544,304,320,2464,-736,2128,-256,0,3376,4608
-448,3728,4160,-1648,-2304,3952,480,96,240,2544,-656,2224,-16,-128,1776,3232
-464,3904,4352,-1728,-2416,4128,400,-128,128,2592,-608,2288,-48,-48,-80,1408
-480,4032,4496,-1792,-2496,4272,368,-352,48,2672,-544,2400,336,-192,-1872,-576
-512,4176,4688,-1840,-2608,4432,304,-576,-48,2736,-544,2464,400,-192,-2976,-1968
-560,4288,4848,-1888,-2704,4576,272,-800,-160,2800,-512,2544,-16,0,-3792,-3056
-576,4464,5024,-1952,-2800,4720,208,-1056,-272,2848,-448,2608,-608,256,-4304,-3792
-640,4576,5200,-1984,-2912,4880,144,-1312,-416,2880,-256,2656,-384,112,-5024,-5040
-656,4736,5376,-2064,-3024,5056,80,-1584,-560,2896,-240,2720,240,-208,-4640,-5136
-720,4848,5552,-2080,-3136,5200,32,-1856,-704,2928,-224,2752,32,-64,-3168,-4000
-768,4912,5664,-2096,-3216,5296,0,-2096,-816,2976,-272,2816,336,-192,-1024,-2128
-800,5024,5808,-2128,-3296,5408,-48,-2336,-928,3040,-208,2880,208,-80,1392,48
-816,5152,5952,-2192,-3392,5552,-96,-2560,-1024,3104,-192,2944,-64,48,3264,1872
-832,5312,6144,-2256,-3488,5728,-160,-2832,-1152,3136,-48,2992,-160,80,4352,3008
-896,5456,6320,-2304,-3616,5888,-224,-3120,-1296,3152,96,3008,144,-48,4752,3600
-944,5536,6464,-2320,-3696,6000,-272,-3392,-1440,3168,80,3040,176,-32,5120,4608
-976,5616,6576,-2336,-3776,6096,-320,-3664,-1568,3200,96,3072,-208,32,4736,5056
-992,5712,6704,-2368,-3856,6208,-352,-3920,-1680,3248,160,3136,-160,-16,3360,4288
-1040,5824,6848,-2416,-3936,6336,-416,-4176,-1808,3296,256,3184,-32,0,1216,2592
-1040,5968,6992,-2480,-4016,6480,-496,-4432,-1920,3328,272,3216,112,64,-1120,640
-1056,6080,7120,-2528,-4080,6592,-560,-4688,-2016,3376,320,3264,288,-208,-3024,-1200
-1056,6176,7232,-2576,-4144,6704,-624,-4928,-2128,3424,368,3328,416,-192,-4096,-2496
-1088,6272,7344,-2608,-4224,6800,-704,-5152,-2208,3504,416,3392,-128,144,-4528,-3488
-1088,6384,7472,-2672,-4288,6928,-784,-5376,-2272,3584,544,3472,-560,288,-4688,-4384
-1088,6544,7616,-2736,-4352,7088,-896,-5616,-2336,3648,624,3552,-224,32,-4688,-5248
-1056,6720,7760,-2848,-4416,7248,-992,-5808,-2384,3744,688,3632,240,-176,-3536,-4816
-1040,6864,7888,-2928,-4480,7376,-1088,-6000,-2464,3808,704,3696,128,-16,-1632,-3328
-1040,6960,7984,-2976,-4528,7472,-1184,-6208,-2544,3888,720,3776,272,-112,592,-1264
-1056,7056,8096,-3008,-4576,7568,-1264,-6384,-2592,3968,720,3872,48,48,2640,960
-1040,7184,8224,-3088,-4640,7712,-1344,-6544,-2640,4064,880,3968,-240,144,3952,2480
-1024,7360,8384,-3184,-4720,7888,-1440,-6736,-2720,4128,1008,4048,-96,32,4320,3264
-1024,7552,8560,-3280,-4800,8064,-1584,-6944,-2816,4192,1104,4112,16,-80,4256,3792
-1008,7696,8704,-3360,-4864,8224,-1712,-7152,-2928,4256,992,4192,32,-96,4416,4720
-992,7824,8832,-3440,-4928,8336,-1824,-7312,-2992,4352,1056,4304,-288,144,3824,4784
-1008,8000,9008,-3520,-5024,8512,-1936,-7488,-3072,4416,1152,4416,-64,48,2368,3680
-1008,8176,9184,-3600,-5104,8688,-2064,-7648,-3152,4496,1248,4512,-208,0,528,1872
-992,8384,9360,-3712,-5184,8880,-2192,-7824,-3248,4560,1216,4608,176,-64,-1440,-96
-1008,8544,9536,-3792,-5280,9040,-2352,-8016,-3360,4624,1280,4688,560,-240,-2816,-1504
-992,8752,9744,-3904,-5376,9248,-2496,-8208,-3488,4688,1360,4784,128,-64,-3824,-2736
-1008,8896,9888,-3968,-5456,9392,-2656,-8416,-3616,4736,1392,4864,-288,192,-4304,-3520
-1024,9040,10048,-4032,-5536,9552,-2784,-8592,-3712,4800,1584,4992,-544,176,-4752,-4560
-1008,9216,10224,-4128,-5616,9712,-2944,-8768,-3840,4848,1616,5088,-32,64,-4672,-5024
-992,9392,10384,-4224,-5696,9888,-3120,-8960,-3952,4880,1680,5184,144,-192,-3360,-4208
-976,9536,10512,-4304,-5744,10016,-3296,-9136,-4064,4912,1648,5264,208,-64,-1296,-2576
-960,9664,10608,-4368,-5792,10128,-3504,-9296,-4144,4960,1712,5360,352,-128,1024,-480
-928,9760,10688,-4448,-5808,10224,-3680,-9408,-4224,5040,1744,5472,80,80,2976,1408
-896,9872,10768,-4512,-5840,10320,-3856,-9520,-4288,5088,1872,5568,-224,32,4160,2592
-864,10000,10864,-4592,-5872,10432,-4048,-9616,-4336,5168,2048,5680,-48,16,4624,3216
-816,10112,10912,-4672,-5856,10512,-4240,-9696,-4384,5216,2048,5792,80,-48,4704,3952
-752,10176,10912,-4736,-5840,10544,-4416,-9728,-4368,5296,2048,5904,-48,-32,4640,4768
-688,10208,10880,-4784,-5792,10544,-4576,-9728,-4384,5344,2128,5968,-192,96,3584,4496
-624,10192,10816,-4800,-5728,10496,-4720,-9712,-4352,5424,2224,6064,-80,-32,1712,3136
-560,10176,10720,-4832,-5648,10432,-4864,-9664,-4304,5504,2256,6160,64,0,-496,1264
-480,10160,10640,-4864,-5552,10384,-4992,-9584,-4224,5584,2320,6256,288,-240,-2416,-544
-384,10144,10512,-4896,-5440,10320,-5104,-9472,-4144,5648,2352,6320,448,-128,-3616,-1936
-288,10048,10320,-4896,-5312,10176,-5184,-9312,-4032,5680,2384,6368,32,0,-4176,-3024
-240,9888,10112,-4848,-5168,9984,-5248,-9136,-3936,5696,2480,6384,-512,240,-4352,-3808
-160,9728,9888,-4816,-5024,9792,-5296,-8960,-3840,5712,2656,6384,-416,64,-4656,-4880
-80,9568,9632,-4768,-4864,9600,-5312,-8768,-3728,5712,2624,6384,96,16,-4032,-4944
0,9376,9392,-4704,-4704,9376,-5296,-8544,-3616,5680,2608,6336,112,-144,-2496,-3888
80,9168,9072,-4640,-4512,9104,-5248,-8288,-3504,5616,2528,6272,352,-208,-496,-2096
128,8896,8768,-4528,-4320,8832,-5184,-8016,-3392,5520,2592,6176,192,-32,1696,80
176,8624,8432,-4416,-4144,8528,-5088,-7712,-3248,5424,2576,6064,-192,64,3328,1840
208,8288,8064,-4272,-3920,8176,-4960,-7376,-3088,5312,2688,5936,-112,64,3968,2928
256,7984,7712,-4144,-3728,7840,-4832,-7056,-2960,5136,2768,5776,16,-160,4080,3488
272,7632,7344,-3968,-3536,7472,-4656,-6720,-2864,4896,2672,5552,32,48,4400,4464
288,7280,6976,-3792,-3344,7104,-4464,-6384,-2800,4608,2608,5312,-128,48,4256,4896
288,6864,6560,-3584,-3136,6688,-4256,-6032,-2704,4320,2592,5072,-192,80,3168,4256
336,6512,6160,-3440,-2912,6320,-4048,-5664,-2608,4016,2640,4800,-48,64,1456,2672
352,6080,5728,-3232,-2688,5888,-3808,-5296,-2512,3680,2528,4512,0,-160,-496,656
336,5648,5280,-3008,-2464,5440,-3552,-4896,-2400,3328,2464,4192,384,-224,-2160,-1136
352,5200,4832,-2784,-2240,5008,-3296,-4496,-2288,2992,2352,3872,304,-144,-3264,-2400
336,4768,4416,-2560,-2032,4576,-3040,-4096,-2176,2640,2304,3536,-144,112,-3952,-3328
336,4368,4016,-2368,-1840,4176,-2784,-3696,-2064,2288,2320,3216,-656,240,-4544,-4320
320,3952,3616,-2160,-1648,3776,-2544,-3312,-1968,1936,2272,2896,-240,80,-4928,-5200
320,3536,3200,-1936,-1440,3344,-2272,-2912,-1840,1600,2192,2560,96,-128,-4160,-4832
320,3104,2752,-1728,-1216,2912,-2016,-2512,-1696,1280,2016,2240,160,16,-2336,-3424
336,2688,2336,-1520,-1008,2512,-1744,-2112,-1568,960,1888,1920,304,-144,-64,-1408
320,2288,1952,-1328,-816,2112,-1520,-1744,-1440,656,1728,1584,-32,-16,2320,720
320,1904,1568,-1120,-624,1712,-1296,-1376,-1296,368,1744,1280,-176,176,3936,2368
320,1504,1184,-928,-432,1328,-1072,-1024,-1152,128,1728,1008,-96,-16,4608,3248
320,1152,816,-736,-256,960,-864,-688,-992,-96,1696,720,192,16,4816,3760
336,800,448,-576,-48,608,-688,-368,-832,-272,1440,464,-48,-48,5072,4752
352,496,112,-432,128,288,-496,-32,-640,-400,1344,256,-272,80,4272,4752
368,208,-176,-288,272,0,-336,240,-496,-544,1248,32,0,32,2528,3744
368,-64,-448,-160,416,-272,-192,512,-336,-656,1200,-176,-96,32,448,2016
368,-336,-720,-16,544,-544,-48,768,-192,-752,1040,-352,176,-96,-1808,32
384,-576,-976,80,688,-784,80,992,-48,-832,1008,-512,464,-208,-3280,-1520
400,-800,-1216,192,800,-1008,192,1200,80,-896,880,-656,48,-32,-4192,-2784
400,-992,-1408,288,896,-1200,288,1392,192,-944,784,-784,-400,224,-4576,-3648
432,-1136,-1568,336,992,-1360,384,1568,320,-992,848,-896,-464,192,-4784,-4752
432,-1280,-1728,416,1072,-1504,448,1712,400,-1040,768,-1008,-48,0,-4480,-5264
432,-1408,-1840,480,1136,-1616,512,1840,480,-1072,688,-1104,128,-16,-3008,-4400
432,-1584,-2016,560,1232,-1792,608,1984,576,-1088,528,-1152,192,0,-992,-2640
448,-1680,-2144,608,1296,-1920,656,2080,640,-1104,464,-1200,208,-240,1264,-496
480,-1760,-2240,624,1344,-2000,704,2176,704,-1120,368,-1248,-16,-32,3168,1456
464,-1808,-2272,656,1360,-2048,752,2256,752,-1136,384,-1296,-160,160,4144,2784
448,-1872,-2336,704,1376,-2112,784,2336,800,-1152,464,-1344,-96,32,4400,3392
480,-1888,-2384,688,1424,-2128,816,2384,832,-1168,352,-1376,128,-64,4368,4096
512,-1952,-2464,720,1472,-2208,848,2464,880,-1168,240,-1376,-32,32,4304,4848
512,-2000,-2512,720,1504,-2256,896,2528,928,-1168,192,-1392,-176,240,3376,4448
512,-2016,-2528,736,1504,-2272,912,2576,944,-1184,192,-1408,-80,-48,1680,3088
496,-2016,-2528,752,1504,-2272,912,2608,960,-1200,128,-1440,-112,48,-320,1280
512,-2032,-2560,736,1520,-2304,928,2640,976,-1200,128,-1456,288,-208,-2096,-592
528,-2064,-2592,752,1552,-2336,944,2672,992,-1216,48,-1472,400,-192,-3184,-2048
528,-2096,-2624,768,1568,-2368,976,2720,1024,-1216,-16,-1472,-48,-32,-3920,-3040
528,-2096,-2640,768,1584,-2368,992,2784,1072,-1200,0,-1472,-592,112,-4208,-3760
544,-2064,-2608,752,1584,-2336,992,2800,1072,-1216,96,-1488,-464,128,-4672,-4864
560,-2032,-2592,720,1568,-2320,992,2816,1088,-1232,32,-1504,176,16,-4288,-4880
560,-2032,-2608,720,1584,-2320,992,2832,1088,-1248,-48,-1520,80,-64,-2784,-3808
560,-2064,-2640,736,1600,-2352,1008,2864,1120,-1232,-160,-1536,208,-144,-800,-2000
560,-2096,-2656,752,1600,-2368,1008,2896,1136,-1232,-176,-1536,144,-16,1456,208
560,-2096,-2672,752,1616,-2384,1024,2928,1152,-1232,-240,-1536,-32,48,3248,1920
560,-2064,-2624,736,1584,-2352,1024,2944,1168,-1232,-176,-1552,-80,112,4048,2928
560,-2032,-2592,720,1568,-2320,1024,2944,1168,-1232,-112,-1568,112,-48,4352,3424
576,-2032,-2608,720,1584,-2320,1024,2944,1168,-1248,-192,-1584,32,-96,4752,4352
608,-2048,-2656,704,1632,-2352,1024,2976,1200,-1232,-256,-1584,-144,176,4592,4800
592,-2080,-2672,736,1632,-2384,1040,3008,1232,-1200,-272,-1568,-192,80,3280,4064
560,-2080,-2656,736,1616,-2368,1040,3024,1248,-1200,-240,-1552,-64,0,1248,2560
592,-2048,-2656,704,1616,-2352,1024,3040,1248,-1200,-304,-1552,160,-64,-992,688
624,-2016,-2656,672,1632,-2336,1024,3040,1248,-1200,-320,-1552,304,-176,-2784,-1040
608,-2032,-2656,704,1616,-2352,1008,3056,1264,-1200,-384,-1552,352,-176,-3888,-2384
624,-2032,-2656,688,1632,-2352,992,3056,1264,-1200,-400,-1568,-144,160,-4592,-3344
624,-2080,-2704,720,1648,-2400,1008,3088,1312,-1168,-368,-1536,-656,304,-4912,-4192
656,-2048,-2720,688,1680,-2384,976,3088,1312,-1152,-384,-1520,-112,80,-5088,-5056
656,-2016,-2704,656,1664,-2368,960,3088,1328,-1152,-384,-1504,128,-96,-3936,-4704
672,-2000,-2688,656,1664,-2352,944,3104,1328,-1136,-480,-1504,144,-96,-1984,-3328
656,-2064,-2720,688,1680,-2384,944,3104,1344,-1120,-528,-1488,272,-128,320,-1280
688,-2032,-2736,656,1712,-2384,912,3120,1360,-1120,-592,-1488,0,0,2592,880
688,-2048,-2752,656,1712,-2400,928,3136,1392,-1104,-512,-1456,-224,48,4048,2384
704,-2032,-2736,640,1712,-2384,912,3152,1408,-1088,-496,-1424,-96,80,4480,3232
720,-1984,-2704,608,1712,-2336,880,3136,1408,-1088,-480,-1440,176,-80,4400,3760
752,-1952,-2704,592,1728,-2336,864,3136,1408,-1088,-656,-1424,16,48,4416,4640
752,-1968,-2736,592,1728,-2352,864,3136,1408,-1072,-672,-1424,-240,64,3696,4672
752,-1984,-2736,608,1744,-2368,848,3152,1440,-1056,-656,-1408,-64,32,2032,3616
736,-1984,-2752,608,1728,-2368,832,3152,1440,-1056,-640,-1392,-144,64,160,1920
768,-1968,-2752,592,1744,-2352,832,3152,1456,-1040,-736,-1392,192,-16,-1760,0
768,-1920,-2688,560,1712,-2304,832,3168,1472,-1056,-736,-1392,384,-176,-2928,-1488
768,-1888,-2672,544,1712,-2272,832,3168,1472,-1056,-784,-1392,112,-128,-3680,-2704
784,-1888,-2688,544,1728,-2288,832,3168,1472,-1072,-816,-1408,-432,96,-4000,-3536
752,-1920,-2688,576,1712,-2304,832,3200,1488,-1056,-704,-1392,-448,160,-4368,-4704
752,-1904,-2688,560,1712,-2304,848,3200,1504,-1056,-736,-1392,48,-16,-4224,-5216
768,-1888,-2672,544,1712,-2272,848,3200,1520,-1056,-768,-1392,144,-32,-3120,-4416
768,-1872,-2672,544,1712,-2272,848,3200,1520,-1056,-880,-1392,176,0,-1328,-2784
768,-1888,-2672,544,1712,-2288,848,3232,1520,-1056,-896,-1392,128,-80,784,-608
768,-1920,-2704,560,1728,-2304,848,3248,1536,-1072,-928,-1408,-64,0,2576,1376
768,-1936,-2720,576,1744,-2336,848,3264,1552,-1072,-864,-1408,-224,16,3680,2592
784,-1936,-2736,560,1744,-2336,848,3264,1568,-1088,-752,-1424,-64,-48,4032,3216
784,-1936,-2720,560,1744,-2336,848,3264,1552,-1088,-848,-1424,80,0,4432,3952
784,-1920,-2720,560,1744,-2320,848,3280,1568,-1088,-912,-1424,32,-16,4640,4880
768,-1952,-2736,576,1744,-2352,848,3280,1568,-1104,-896,-1440,-304,160,3936,4640
752,-2000,-2768,608,1760,-2400,848,3296,1584,-1104,-864,-1440,-80,16,2240,3328
768,-2016,-2784,608,1760,-2400,848,3312,1584,-1120,-912,-1456,-128,-80,192,1472
800,-2064,-2864,624,1808,-2464,864,3344,1616,-1104,-896,-1440,304,-208,-1840,-400
816,-2064,-2880,624,1824,-2464,848,3344,1632,-1104,-944,-1440,448,-160,-3248,-1920
816,-2080,-2912,624,1856,-2496,848,3360,1632,-1120,-960,-1456,-16,96,-4128,-3056
816,-2128,-2960,656,1872,-2544,864,3376,1632,-1120,-912,-1456,-464,224,-4608,-3824
784,-2192,-2992,704,1872,-2592,864,3376,1632,-1120,-784,-1472,-416,96,-5104,-4944
800,-2192,-3008,688,1888,-2608,864,3392,1648,-1136,-816,-1488,176,-112,-4624,-5024
816,-2240,-3056,704,1920,-2656,880,3392,1648,-1136,-896,-1488,144,-112,-2992,-3968
832,-2288,-3120,720,1952,-2704,880,3408,1664,-1152,-992,-1488,160,-144,-656,-2160
816,-2320,-3152,752,1968,-2736,880,3424,1664,-1168,-960,-1504,128,-32,1744,48
832,-2368,-3200,768,2000,-2768,880,3424,1664,-1184,-992,-1520,32,48,3568,1872
816,-2384,-3216,768,2000,-2800,880,3440,1664,-1184,-896,-1536,-128,-32,4432,3024
800,-2432,-3248,816,2016,-2848,912,3456,1680,-1200,-816,-1552,48,-80,4640,3616
816,-2464,-3296,816,2048,-2880,912,3472,1696,-1200,-896,-1552,144,-80,4816,4624
848,-2480,-3344,816,2080,-2912,928,3488,1712,-1216,-928,-1552,-144,128,4432,4992
832,-2528,-3360,832,2080,-2944,944,3504,1712,-1232,-912,-1568,-272,112,3104,4208
816,-2576,-3392,880,2096,-2976,944,3504,1712,-1280,-848,-1600,-16,-48,1088,2576
800,-2640,-3440,912,2112,-3040,944,3520,1712,-1296,-912,-1632,176,-48,-1088,592
800,-2672,-3488,928,2128,-3088,960,3536,1728,-1312,-912,-1632,320,-160,-2816,-1168
784,-2720,-3520,960,2144,-3120,976,3552,1728,-1328,-976,-1664,288,-160,-3840,-2480
768,-2768,-3536,992,2144,-3152,992,3568,1728,-1344,-960,-1696,-128,64,-4304,-3392
752,-2800,-3568,1008,2144,-3184,992,3584,1728,-1376,-880,-1712,-560,288,-4624,-4160
736,-2832,-3568,1040,2144,-3200,1008,3600,1744,-1392,-848,-1728,-128,48,-4816,-5104
736,-2864,-3616,1056,2160,-3232,1024,3616,1760,-1408,-864,-1760,176,-176,-3904,-4704
736,-2928,-3664,1088,2192,-3296,1040,3648,1776,-1424,-944,-1776,80,-16,-2096,-3248
720,-2976,-3712,1120,2208,-3344,1056,3680,1792,-1424,-1008,-1792,320,-112,48,-1360
720,-3008,-3728,1136,2208,-3376,1056,3696,1792,-1440,-1056,-1808,-16,16,2304,816
704,-3040,-3744,1152,2208,-3392,1072,3728,1808,-1440,-944,-1824,-256,128,3760,2368
704,-3088,-3776,1184,2224,-3424,1072,3744,1824,-1456,-912,-1856,-32,-96,4272,3248
688,-3120,-3808,1200,2240,-3456,1072,3776,1824,-1472,-848,-1888,176,-96,4432,3808
672,-3152,-3824,1232,2240,-3488,1072,3792,1824,-1488,-1040,-1920,-16,-80,4656,4720
688,-3200,-3888,1248,2272,-3552,1104,3840,1872,-1472,-1056,-1904,-176,128,4112,4704
688,-3232,-3920,1264,2288,-3568,1104,3872,1888,-1472,-1008,-1920,-128,64,2608,3632
704,-3232,-3936,1264,2304,-3600,1104,3904,1904,-1488,-976,-1952,0,-32,560,1920
688,-3296,-3984,1296,2336,-3632,1104,3952,1936,-1488,-1056,-1952,208,-176,-1584,16
672,-3360,-4032,1344,2352,-3712,1120,4000,1968,-1488,-1040,-1968,368,-144,-3024,-1536
720,-3376,-4080,1312,2400,-3728,1136,4032,1984,-1504,-1088,-1984,112,-16,-4064,-2768
736,-3408,-4144,1328,2432,-3776,1136,4064,2016,-1504,-1136,-2000,-320,144,-4512,-3600
736,-3424,-4160,1328,2432,-3792,1152,4112,2048,-1504,-1008,-2000,-400,240,-4912,-4720
736,-3424,-4160,1328,2432,-3792,1152,4160,2080,-1504,-1024,-2016,-48,-32,-4720,-5232
752,-3440,-4192,1328,2464,-3824,1152,4192,2096,-1520,-1024,-2048,128,-160,-3264,-4336
768,-3504,-4272,1360,2512,-3888,1152,4240,2128,-1536,-1136,-2064,144,-48,-1136,-2640
784,-3552,-4320,1376,2544,-3952,1168,4288,2176,-1536,-1168,-2064,272,-48,1152,-512
800,-3584,-4368,1376,2576,-3984,1168,4336,2208,-1536,-1216,-2064,-80,32,3104,1376
800,-3600,-4384,1392,2576,-4000,1168,4368,2224,-1552,-1136,-2096,-256,112,4112,2656
816,-3568,-4400,1376,2592,-3984,1168,4416,2272,-1568,-1008,-2112,-112,-32,4352,3312
832,-3584,-4416,1376,2624,-4016,1168,4464,2288,-1584,-1088,-2128,144,-96,4336,4048
848,-3648,-4480,1392,2656,-4064,1200,4528,2352,-1568,-1184,-2128,-16,-16,4304,4864
832,-3712,-4544,1440,2672,-4128,1232,4592,2384,-1584,-1168,-2144,-272,128,3296,4592
832,-3744,-4576,1456,2704,-4176,1232,4640,2416,-1600,-1152,-2160,-64,144,1632,3296
864,-3744,-4608,1424,2736,-4176,1232,4688,2464,-1616,-1168,-2160,-48,48,-288,1424
880,-3744,-4640,1424,2752,-4192,1248,4736,2496,-1616,-1152,-2176,256,-208,-2048,-480
880,-3792,-4672,1440,2768,-4240,1248,4784,2528,-1632,-1200,-2208,400,-192,-3104,-2048
912,-3840,-4752,1456,2816,-4304,1248,4848,2576,-1632,-1248,-2208,16,16,-3776,-3136
896,-3888,-4800,1488,2848,-4352,1280,4912,2640,-1600,-1216,-2192,-560,336,-4048,-3792
912,-3904,-4816,1488,2864,-4368,1280,4976,2688,-1600,-1072,-2208,-384,32,-4480,-4848
928,-3904,-4848,1472,2880,-4368,1280,5024,2720,-1616,-1136,-2224,96,-128,-4208,-4976
960,-3920,-4880,1472,2912,-4400,1296,5072,2752,-1616,-1152,-2240,80,-64,-2784,-3920
960,-4000,-4976,1520,2960,-4480,1312,5136,2800,-1632,-1264,-2256,176,-128,-848,-2112
976,-4064,-5024,1536,2992,-4544,1328,5200,2848,-1632,-1248,-2256,192,-16,1280,16
976,-4080,-5056,1552,2992,-4560,1344,5264,2896,-1616,-1312,-2256,-160,32,2944,1728
1008,-4112,-5120,1536,3056,-4624,1360,5328,2944,-1616,-1216,-2256,-160,64,3888,2848
1024,-4096,-5136,1520,3072,-4624,1360,5376,2992,-1632,-1152,-2272,32,32,4240,3536
1040,-4128,-5184,1536,3104,-4656,1376,5440,3024,-1632,-1216,-2288,96,48,4672,4512
1040,-4208,-5264,1568,3152,-4736,1392,5488,3072,-1648,-1248,-2304,-176,64,4544,4944
1024,-4320,-5344,1632,3168,-4832,1408,5568,3120,-1632,-1248,-2320,-112,32,3488,4224
1072,-4304,-5392,1600,3216,-4848,1440,5632,3184,-1632,-1216,-2304,-32,-112,1632,2656
1088,-4336,-5424,1600,3248,-4880,1456,5680,3216,-1632,-1280,-2320,16,96,-464,704
1088,-4352,-5456,1616,3264,-4896,1456,5728,3248,-1648,-1280,-2336,416,-208,-2288,-1024
1120,-4384,-5520,1616,3312,-4944,1456,5776,3280,-1680,-1312,-2352,160,-160,-3520,-2288
1152,-4432,-5600,1632,3360,-5008,1472,5824,3328,-1696,-1312,-2368,-240,144,-4304,-3280
1136,-4496,-5648,1680,3376,-5072,1504,5888,3376,-1696,-1248,-2368,-480,240,-4816,-4160
1136,-4528,-5680,1696,3392,-5104,1520,5936,3408,-1696,-1216,-2384,-224,48,-5104,-5184
1152,-4544,-5712,1680,3424,-5120,1536,5984,3440,-1712,-1232,-2400,160,-112,-4224,-4848
1184,-4544,-5744,1664,3456,-5152,1536,6032,3472,-1728,-1296,-2416,144,-80,-2272,-3440
1216,-4592,-5808,1680,3504,-5200,1552,6080,3520,-1744,-1360,-2432,352,-144,96,-1424
1200,-4656,-5856,1712,3520,-5264,1568,6112,3552,-1744,-1392,-2448,0,112,2480,736
1200,-4704,-5904,1744,3536,-5312,1600,6176,3600,-1744,-1296,-2448,-256,80,4128,2272
1216,-4720,-5952,1728,3568,-5328,1600,6224,3632,-1744,-1264,-2448,-64,-32,4768,3184
1216,-4720,-5952,1728,3568,-5328,1600,6256,3664,-1760,-1216,-2480,96,-176,4816,3760
1232,-4736,-5984,1744,3600,-5360,1600,6272,3680,-1776,-1360,-2496,48,-48,4944,4752
1280,-4752,-6048,1728,3648,-5408,1616,6320,3712,-1776,-1376,-2512,-176,128,4176,4832
1264,-4816,-6096,1760,3664,-5456,1632,6368,3744,-1776,-1328,-2496,0,112,2480,3808
1248,-4880,-6128,1808,3664,-5504,1648,6400,3776,-1792,-1296,-2528,0,-48,304,2032
1264,-4896,-6160,1808,3696,-5536,1664,6416,3808,-1776,-1408,-2528,224,-32,-1872,64
1280,-4896,-6176,1792,3712,-5536,1664,6448,3840,-1776,-1392,-2512,384,-208,-3232,-1520
1296,-4880,-6192,1776,3728,-5536,1664,6480,3856,-1792,-1424,-2528,144,-32,-4032,-2768
1296,-4896,-6208,1776,3744,-5552,1664,6496,3856,-1808,-1440,-2544,-368,144,-4320,-3536
1296,-4960,-6272,1808,3776,-5600,1680,6528,3888,-1808,-1328,-2544,-448,176,-4592,-4608
1312,-4976,-6304,1808,3792,-5632,1696,6560,3920,-1808,-1360,-2544,-16,32,-4416,-5120
1312,-4944,-6272,1792,3776,-5616,1696,6560,3936,-1808,-1408,-2544,192,-128,-3152,-4368
1328,-4992,-6336,1808,3824,-5664,1712,6592,3952,-1808,-1504,-2544,320,-112,-1184,-2768
1344,-4992,-6352,1808,3840,-5664,1712,6592,3968,-1808,-1520,-2544,320,-32,960,-624
1344,-5024,-6368,1824,3856,-5696,1728,6592,3968,-1824,-1568,-2544,-144,0,2864,1344
1344,-5040,-6400,1824,3856,-5712,1728,6608,3984,-1824,-1472,-2544,-352,80,3808,2672
1312,-5088,-6416,1872,3856,-5744,1744,6624,4000,-1824,-1360,-2544,0,-64,4128,3344
1360,-5040,-6400,1824,3872,-5712,1744,6608,4000,-1824,-1456,-2544,96,32,4192,3920
1376,-5024,-6416,1808,3888,-5712,1760,6624,4032,-1808,-1568,-2528,16,-32,4256,4784
1376,-5024,-6400,1808,3872,-5712,1760,6608,4016,-1808,-1552,-2528,-272,96,3504,4624
1376,-5040,-6416,1808,3888,-5728,1760,6592,4016,-1824,-1520,-2528,16,-16,1936,3264
1376,-5056,-6432,1824,3888,-5744,1760,6576,4000,-1824,-1536,-2528,-112,16,-32,1312
1360,-5072,-6432,1840,3888,-5744,1792,6576,4016,-1808,-1536,-2512,208,-160,-1952,-560
1360,-5056,-6416,1824,3888,-5728,1776,6544,4000,-1808,-1584,-2512,368,-144,-3088,-1984
1392,-5024,-6416,1808,3888,-5712,1792,6528,4000,-1792,-1632,-2496,64,-16,-3888,-3008
1392,-4992,-6384,1792,3872,-5696,1792,6512,4016,-1776,-1584,-2480,-528,208,-4304,-3696
1376,-4976,-6352,1792,3856,-5664,1776,6480,3984,-1792,-1408,-2480,-432,128,-4784,-4848
1360,-4992,-6352,1808,3840,-5664,1792,6448,3968,-1776,-1472,-2464,0,-112,-4352,-4960
1344,-4992,-6336,1808,3840,-5664,1792,6400,3952,-1760,-1520,-2464,32,-16,-2928,-3920
1344,-4976,-6320,1808,3824,-5648,1792,6368,3952,-1744,-1632,-2432,368,-160,-864,-2128
1344,-4928,-6288,1776,3808,-5600,1792,6320,3920,-1744,-1584,-2416,112,-224,1424,80
1344,-4896,-6256,1760,3792,-5568,1776,6272,3904,-1728,-1616,-2400,48,128,3168,1808
1328,-4864,-6208,1744,3760,-5536,1776,6224,3872,-1728,-1504,-2384,-208,96,4160,2944
1312,-4832,-6160,1744,3728,-5504,1776,6176,3840,-1712,-1408,-2384,96,-80,4400,3584
1296,-4816,-6128,1744,3696,-5472,1792,6128,3824,-1696,-1472,-2368,96,-96,4768,4512
1296,-4784,-6096,1728,3680,-5440,1792,6064,3792,-1680,-1504,-2336,-144,80,4560,4992
1296,-4736,-6032,1712,3648,-5376,1776,6000,3760,-1648,-1472,-2304,-128,80,3360,4256
1264,-4688,-5968,1696,3616,-5328,1776,5952,3728,-1648,-1392,-2288,-32,32,1392,2576
1264,-4640,-5920,1680,3568,-5280,1760,5872,3680,-1648,-1408,-2272,128,-96,-768,656
1248,-4624,-5888,1680,3552,-5248,1760,5808,3632,-1632,-1392,-2256,384,-240,-2592,-1120
1232,-4592,-5824,1664,3520,-5200,1760,5728,3600,-1616,-1424,-2224,224,-96,-3648,-2352
1216,-4512,-5728,1632,3456,-5120,1760,5664,3552,-1600,-1408,-2208,-240,32,-4240,-3280
1200,-4480,-5696,1632,3440,-5088,1760,5584,3504,-1584,-1296,-2160,-640,144,-4608,-4176
1184,-4400,-5584,1600,3376,-4976,1728,5488,3440,-1584,-1232,-2160,-128,32,-4784,-5136
1152,-4336,-5504,1568,3328,-4912,1728,5392,3376,-1568,-1216,-2144,224,-160,-4016,-4880
1152,-4288,-5456,1552,3296,-4880,1712,5312,3328,-1552,-1264,-2112,80,-16,-2144,-3456
1104,-4320,-5424,1584,3264,-4864,1712,5232,3280,-1536,-1296,-2080,288,-48,48,-1488
1120,-4208,-5328,1520,3232,-4768,1696,5136,3216,-1520,-1312,-2048,96,32,2288,720
1072,-4128,-5216,1520,3136,-4672,1696,5056,3168,-1504,-1200,-2032,-176,80,3776,2352
1024,-4048,-5088,1504,3056,-4576,1680,4944,3088,-1504,-1120,-2000,-48,32,4432,3216
1040,-3968,-5024,1456,3024,-4496,1648,4848,3008,-1488,-1040,-1984,112,-176,4384,3776
1040,-3920,-4960,1424,2992,-4448,1632,4752,2944,-1488,-1152,-1952,16,-32,4544,4688
1008,-3872,-4896,1424,2944,-4384,1616,4656,2880,-1456,-1168,-1920,-304,48,4016,4736
976,-3792,-4784,1392,2880,-4288,1616,4560,2816,-1424,-1088,-1872,-144,112,2480,3728
960,-3696,-4672,1360,2800,-4176,1584,4448,2752,-1424,-1008,-1856,-32,64,544,2080
928,-3616,-4544,1328,2736,-4080,1552,4336,2672,-1424,-1072,-1824,192,-160,-1456,144
880,-3552,-4448,1312,2656,-4000,1536,4224,2592,-1408,-1024,-1792,400,-208,-2800,-1440
864,-3504,-4368,1312,2608,-3936,1520,4128,2512,-1376,-1024,-1776,224,-144,-3664,-2624
832,-3440,-4272,1296,2544,-3856,1488,4016,2432,-1360,-1040,-1728,-320,208,-4208,-3440
816,-3344,-4160,1248,2480,-3744,1488,3920,2384,-1312,-896,-1680,-560,208,-4688,-4544
800,-3232,-4032,1200,2416,-3632,1456,3808,2288,-1296,-880,-1648,0,-80,-4672,-5136
768,-3136,-3904,1168,2320,-3520,1424,3680,2208,-1280,-864,-1632,256,-160,-3520,-4464
736,-3056,-3824,1152,2272,-3440,1408,3584,2144,-1264,-928,-1600,96,-64,-1504,-2800
720,-3008,-3744,1136,2208,-3376,1392,3472,2064,-1232,-912,-1568,192,-64,672,-640
688,-2944,-3632,1120,2144,-3280,1376,3376,2000,-1200,-944,-1520,-48,-32,2640,1200
640,-2848,-3504,1088,2064,-3168,1360,3264,1920,-1184,-832,-1488,-224,16,3904,2576
624,-2720,-3360,1040,1984,-3040,1328,3152,1840,-1152,-688,-1456,32,-48,4256,3232
592,-2624,-3232,992,1904,-2928,1280,3024,1744,-1152,-736,-1456,16,48,4512,3968
560,-2560,-3136,976,1840,-2848,1280,2928,1680,-1120,-800,-1408,-16,0,4640,4848
528,-2528,-3056,976,1776,-2784,1280,2832,1616,-1072,-768,-1376,-272,112,3856,4656
480,-2448,-2944,960,1712,-2688,1248,2736,1552,-1040,-720,-1328,-144,-64,2080,3408
464,-2304,-2784,912,1616,-2560,1200,2608,1472,-1024,-736,-1312,-16,-16,-32,1504
432,-2224,-2688,880,1552,-2448,1200,2512,1392,-992,-720,-1280,384,-176,-2016,-432
400,-2128,-2528,848,1456,-2320,1152,2368,1296,-992,-720,-1280,448,-144,-3424,-1920
384,-2064,-2464,816,1408,-2256,1120,2288,1232,-960,-720,-1232,48,32,-4240,-3056
384,-1984,-2368,784,1360,-2176,1120,2224,1200,-912,-672,-1184,-576,128,-4592,-3872
320,-1936,-2272,784,1280,-2096,1104,2112,1136,-880,-512,-1168,-368,176,-4992,-5024
320,-1792,-2112,720,1200,-1952,1072,2016,1056,-864,-544,-1120,176,-48,-4480,-5088
288,-1680,-1968,672,1120,-1824,1040,1888,976,-864,-592,-1104,208,-64,-2784,-4000
272,-1616,-1872,656,1056,-1744,1008,1808,912,-832,-672,-1072,192,-176,-688,-2112
224,-1552,-1792,656,992,-1664,992,1712,832,-816,-608,-1056,80,-32,1632,64
192,-1504,-1696,640,928,-1600,960,1632,784,-768,-656,-1008,-128,48,3360,1856
176,-1392,-1584,592,864,-1488,944,1536,720,-752,-528,-976,-96,192,4208,2992
160,-1264,-1456,528,800,-1360,912,1440,656,-720,-432,-928,-64,0,4464,3616
160,-1168,-1328,480,736,-1248,880,1360,592,-688,-496,-896,32,-112,4544,4512
128,-1104,-1232,464,672,-1168,864,1280,528,-672,-496,-864,-224,64,4256,5040
112,-1040,-1168,448,624,-1088,848,1200,480,-640,-464,-832,-224,80,3040,4304
80,-992,-1088,432,576,-1024,832,1136,432,-608,-400,-784,64,-48,1152,2656
64,-912,-976,400,512,-944,800,1056,384,-576,-432,-752,0,-80,-944,656
48,-816,-864,368,448,-832,768,976,320,-560,-416,-720,208,-96,-2640,-1136
48,-720,-768,320,400,-752,736,896,272,-528,-432,-688,480,-112,-3584,-2512
32,-656,-688,288,352,-672,720,832,224,-512,-384,-656,-144,16,-4128,-3376
0,-608,-624,288,304,-608,688,768,176,-480,-304,-624,-528,320,-4368,-4176
-16,-544,-544,256,256,-544,672,704,128,-448,-240,-592,-288,0,-4640,-5136
-16,-480,-464,224,208,-464,656,640,96,-416,-240,-544,112,-112,-3856,-4880
-16,-400,-384,192,176,-400,640,576,48,-400,-288,-512,64,-32,-2160,-3456
-32,-352,-320,176,144,-336,608,528,16,-384,-320,-480,320,-208,-176,-1456
-48,-304,-272,160,112,-288,576,464,-32,-352,-352,-464,32,112,2000,704
-64,-256,-208,144,64,-240,576,432,-64,-336,-224,-432,-144,0,3520,2352
-80,-224,-144,128,32,-192,560,384,-80,-304,-176,-400,32,-16,4144,3264
-80,-144,-80,96,0,-112,528,336,-112,-288,-112,-384,176,0,4400,3760
-64,-80,-16,64,-32,-64,496,272,-176,-288,-256,-368,176,16,4736,4704
-96,-64,16,64,-48,-32,496,240,-192,-240,-240,-336,-288,32,4224,4848
-112,-16,96,48,-112,32,464,192,-240,-256,-192,-336,-224,32,2704,3776
-128,0,128,48,-128,64,448,144,-256,-240,-128,-320,-48,-16,704,1984
-128,48,176,32,-160,96,432,96,-288,-240,-208,-304,208,-160,-1408,80
-144,80,208,16,-176,144,416,64,-320,-224,-192,-288,512,-176,-2912,-1504
-112,160,272,-48,-192,208,400,32,-336,-208,-224,-288,208,-112,-3904,-2688
-128,192,320,-48,-240,256,384,-16,-384,-208,-240,-288,-400,256,-4448,-3536
-160,208,352,-32,-256,272,368,-32,-400,-192,-128,-272,-528,272,-4880,-4560
-160,224,384,-48,-272,304,352,-64,-416,-160,-112,-256,-128,-64,-4800,-5104
-144,272,400,-64,-288,336,336,-80,-416,-160,-128,-240,80,-48,-3472,-4400
-144,304,432,-96,-288,368,336,-112,-448,-144,-240,-224,128,-192,-1392,-2736
-160,320,480,-96,-336,400,320,-144,-480,-160,-256,-224,208,-16,960,-640
-176,352,528,-112,-368,432,304,-176,-512,-160,-288,-240,16,-96,2976,1328
-176,384,560,-112,-384,464,288,-208,-512,-160,-208,-224,-208,128,4128,2640
-192,400,576,-128,-384,496,288,-208,-528,-144,-80,-208,16,96,4448,3344
-192,416,592,-128,-400,496,272,-240,-560,-160,-160,-208,176,32,4464,4016
-176,432,576,-144,-384,512,272,-240,-560,-128,-256,-176,-144,0,4400,4784
-160,448,608,-160,-400,528,256,-256,-560,-128,-240,-160,-288,16,3408,4512
-176,480,656,-160,-416,560,256,-272,-576,-128,-192,-160,-48,-48,1744,3200
-192,480,672,-160,-432,576,256,-288,-592,-128,-208,-160,-64,-96,-160,1424
-176,480,656,-160,-432,560,256,-304,-592,-128,-208,-144,240,-176,-2000,-448
-192,464,656,-160,-432,560,240,-320,-608,-128,-272,-144,464,-96,-3136,-1824
-160,496,656,-192,-416,576,240,-320,-608,-112,-288,-112,64,0,-3872,-2976
-176,512,672,-192,-432,608,240,-320,-608,-96,-256,-96,-448,240,-4224,-3696
-208,528,720,-176,-480,624,224,-336,-624,-112,-96,-96,-432,176,-4672,-4912
-192,528,720,-176,-464,624,224,-336,-624,-96,-160,-96,96,-16,-4384,-5056
-176,528,704,-192,-448,608,224,-352,-640,-112,-208,-96,48,-160,-2960,-4000
-176,496,672,-176,-432,576,224,-352,-624,-96,-304,-80,112,-144,-944,-2176
-192,512,688,-176,-448,608,224,-352,-640,-96,-288,-80,256,-80,1344,16
-176,528,704,-192,-448,624,224,-352,-640,-96,-320,-64,-64,16,3088,1760
-176,544,704,-192,-448,608,224,-352,-640,-96,-240,-64,-192,-16,4016,2832
-176,576,736,-208,-464,656,192,-384,-656,-112,-128,-80,-16,-64,4384,3424
-176,560,720,-208,-464,640,208,-368,-640,-96,-208,-80,128,48,4784,4288
-192,544,720,-192,-464,624,224,-352,-640,-96,-240,-80,-112,0,4656,4896
-208,512,704,-160,-464,608,224,-352,-624,-80,-224,-64,-224,-16,3488,4336
-176,560,736,-208,-464,640,208,-368,-640,-96,-176,-80,-80,32,1488,2800
-160,592,752,-224,-464,672,176,-368,-656,-96,-192,-96,-16,0,-688,816
-176,576,752,-224,-480,672,192,-368,-656,-112,-192,-96,400,-144,-2544,-992
-160,576,720,-224,-448,656,192,-368,-640,-96,-240,-96,368,-128,-3744,-2384
-160,560,704,-208,-448,640,192,-352,-624,-80,-224,-80,-144,64,-4480,-3312
-160,576,736,-224,-464,656,192,-352,-624,-80,-144,-80,-544,304,-4736,-4176
-176,592,768,-240,-480,688,176,-368,-640,-96,-96,-96,-144,-16,-4896,-5152
-160,624,784,-240,-480,704,160,-368,-640,-96,-80,-96,96,-80,-4000,-4864
-144,624,752,-256,-448,688,160,-352,-624,-80,-112,-80,64,-64,-2064,-3488
-128,592,720,-240,-432,672,176,-352,-608,-64,-176,-80,176,-176,192,-1520
-144,576,720,-240,-448,656,176,-352,-608,-64,-208,-80,80,48,2496,688
-160,592,752,-240,-464,672,176,-336,-592,-32,-96,-48,-80,96,3936,2288
-144,640,784,-256,-464,704,176,-336,-592,-48,-32,-48,-96,0,4400,3184
-144,656,800,-288,-464,736,160,-352,-592,-48,64,-48,80,-96,4336,3792
-144,640,768,-256,-464,704,128,-352,-608,-80,-64,-64,80,48,4480,4800
-144,608,752,-256,-448,672,144,-336,-592,-64,-64,-64,-224,112,3920,4832
-128,624,736,-256,-432,672,160,-336,-576,-64,-32,-48,-128,144,2400,3840
-112,640,752,-288,-448,704,144,-320,-576,-64,48,-48,-96,0,512,2160
-128,656,784,-288,-464,720,144,-336,-576,-64,-32,-48,288,-128,-1440,96
-112,672,800,-288,-464,736,128,-352,-576,-80,0,-48,432,-160,-2672,-1488
-112,656,768,-288,-448,704,144,-336,-576,-80,16,-64,64,0,-3552,-2704
-144,640,768,-256,-448,704,144,-336,-576,-96,0,-80,-336,192,-3984,-3568
-144,624,768,-256,-448,704,144,-320,-560,-80,128,-64,-416,112,-4480,-4688
-128,656,784,-288,-464,720,144,-336,-560,-96,128,-64,-48,64,-4560,-5216
-112,688,800,-304,-464,752,128,-336,-560,-96,144,-80,192,-128,-3424,-4576
-112,656,768,-288,-448,704,144,-320,-560,-96,80,-64,128,-80,-1632,-2864
-128,656,784,-288,-464,720,128,-336,-560,-112,80,-80,80,-128,576,-736
-128,640,768,-272,-464,704,128,-320,-560,-112,64,-80,-64,80,2592,1280
-128,640,768,-272,-448,704,128,-320,-544,-112,160,-80,-240,144,3776,2640
-128,656,784,-288,-464,720,144,-304,-528,-112,320,-64,-48,0,4272,3344
-96,720,816,-320,-464,752,112,-320,-544,-112,256,-80,80,-176,4592,4096
-112,688,800,-304,-464,752,112,-320,-544,-96,176,-96,-80,-64,4784,4928
-112,672,784,-288,-464,736,128,-304,-544,-96,224,-80,-208,96,4032,4656
-128,640,768,-272,-448,704,128,-304,-528,-96,272,-80,-144,32,2272,3248
-128,656,768,-288,-448,704,112,-304,-544,-96,256,-96,-48,0,64,1456
-128,672,784,-288,-464,736,128,-304,-528,-80,288,-80,304,-64,-2096,-480
-112,704,800,-320,-464,752,112,-304,-544,-96,272,-80,352,-288,-3456,-1920
-112,688,784,-304,-448,736,96,-304,-528,-96,272,-80,80,64,-4368,-3072
-112,656,752,-288,-448,704,96,-288,-512,-64,304,-80,-528,288,-4768,-3776
-128,656,768,-288,-448,704,112,-272,-512,-64,480,-64,-448,224,-5136,-4944
-112,672,784,-288,-448,720,96,-288,-496,-48,432,-64,128,-192,-4448,-5072
-96,688,784,-304,-464,736,96,-288,-496,-48,432,-48,48,-160,-2784,-4000
-96,688,784,-304,-448,736,80,-288,-512,-48,320,-48,320,-112,-528,-2128
-96,672,768,-304,-448,720,80,-288,-512,-48,384,-48,224,-80,1840,16
-96,640,736,-288,-432,688,80,-288,-496,-32,352,-32,-112,64,3616,1824
-80,640,720,-288,-416,672,80,-272,-480,-32,448,-32,-208,80,4448,2896
-96,672,752,-304,-432,704,80,-272,-480,-16,544,-16,64,-80,4512,3456
-80,688,768,-304,-432,720,64,-272,-480,-16,480,-16,128,-16,4560,4320
-80,688,768,-320,-432,736,64,-272,-480,-16,480,-16,-160,64,4208,4784
-80,672,752,-304,-432,704,64,-272,-480,0,496,0,-192,48,2912,4176
-80,640,704,-288,-416,672,64,-256,-464,16,560,16,-112,32,976,2592
-64,656,704,-304,-400,672,64,-256,-448,16,528,32,112,-16,-1040,640
-80,640,720,-288,-400,672,64,-256,-448,32,528,32,336,-240,-2704,-1120
-80,656,736,-304,-416,688,48,-272,-464,16,480,32,320,-192,-3568,-2352
-64,672,736,-320,-400,704,48,-256,-432,32,512,48,-160,32,-4048,-3216
-48,640,688,-304,-384,672,64,-240,-416,48,608,64,-544,336,-4240,-3968
-64,672,736,-304,-416,704,48,-272,-448,16,656,32,-192,16,-4512,-4960
-80,656,720,-304,-416,688,48,-256,-432,32,656,48,176,-144,-3792,-4752
-64,672,720,-304,-400,688,48,-256,-432,32,560,48,48,80,-2080,-3392
-64,672,720,-320,-400,688,48,-256,-416,48,560,64,320,-224,-96,-1568
-48,688,736,-336,-400,704,48,-256,-432,48,528,64,64,32,2064,528
-64,688,736,-320,-416,704,48,-256,-416,48,624,64,-208,48,3440,2096
-64,672,720,-320,-400,704,48,-256,-416,48,688,64,-112,16,4048,3104
-48,688,736,-320,-400,704,48,-256,-416,48,736,64,128,-80,4160,3632
-48,688,736,-336,-400,704,32,-272,-432,48,592,48,48,-16,4448,4656
-64,704,736,-336,-400,720,32,-256,-432,32,592,64,-176,80,4048,4752
-48,704,752,-336,-416,720,32,-256,-432,32,656,48,-96,16,2752,3776
-64,688,752,-336,-416,720,32,-256,-432,32,720,48,-48,16,976,2160
-48,688,736,-336,-400,704,32,-256,-432,32,624,48,256,-96,-1056,240
-48,688,720,-320,-400,704,32,-256,-432,32,624,48,416,-224,-2496,-1344
-48,688,736,-336,-400,704,32,-272,-432,32,608,64,192,-144,-3552,-2528
-48,704,736,-352,-400,720,16,-272,-432,32,592,64,-336,48,-4224,-3440
-48,720,752,-352,-400,736,16,-272,-432,16,720,64,-544,192,-4784,-4560
-48,704,736,-336,-400,720,0,-272,-432,16,720,48,-32,-64,-4944,-5232
-48,704,736,-336,-400,704,0,-272,-432,16,704,48,176,-80,-3856,-4608
-32,688,720,-336,-384,704,16,-272,-432,16,624,48,160,-80,-1792,-2960
-48,688,720,-320,-400,704,16,-272,-432,0,592,48,240,-144,512,-816
-64,688,736,-320,-400,704,16,-288,-432,0,576,48,-48,96,2608,1232
-32,704,736,-352,-400,720,0,-288,-432,-16,656,48,-160,64,4064,2752
-48,720,752,-352,-400,736,0,-288,-432,-16,784,48,-176,-96,4656,3424
-48,704,736,-336,-400,720,0,-288,-448,-32,704,32,256,-176,4928,4160
-48,688,720,-336,-400,704,0,-288,-432,-32,592,48,32,16,4992,5056
-16,704,704,-352,-384,704,-16,-288,-432,-48,608,32,-240,144,4064,4800
-16,720,720,-368,-384,720,-32,-288,-448,-64,640,32,-32,48,2192,3504
0,736,720,-368,-368,720,-32,-304,-448,-80,640,32,-80,64,-32,1648
-32,688,704,-336,-384,704,-16,-288,-432,-80,656,32,272,-80,-2176,-416
-32,720,736,-352,-400,720,-32,-304,-464,-96,640,16,352,-112,-3520,-1920
-16,704,720,-352,-384,704,-32,-304,-448,-80,592,32,48,-96,-4352,-3120
-32,704,720,-336,-400,704,-16,-288,-432,-80,624,32,-544,176,-4672,-3872
-32,720,736,-368,-400,752,-32,-304,-448,-96,800,16,-384,192,-4976,-5024
0,752,752,-384,-384,752,-48,-304,-448,-96,768,16,64,-128,-4400,-5168
-16,736,752,-368,-384,736,-48,-320,-464,-112,720,16,80,0,-2640,-4000
0,720,704,-368,-368,704,-32,-304,-448,-96,624,16,304,-32,-464,-2112
-16,688,688,-352,-368,688,-32,-304,-432,-80,656,32,144,-64,1808,16
-16,688,704,-352,-368,704,-32,-304,-448,-80,608,32,-176,80,3456,1872
-32,720,736,-352,-384,720,-32,-304,-448,-80,720,32,-320,144,4128,2928
-16,736,736,-368,-384,736,-32,-304,-448,-64,816,32,48,-80,4224,3504
-16,704,720,-352,-384,704,-32,-304,-432,-64,752,32,48,-64,4400,4400
-32,656,688,-320,-368,672,-16,-288,-432,-48,736,48,-112,64,4224,4896
-32,640,672,-304,-368,656,-16,-288,-432,-32,720,64,-144,192,3136,4288
-48,656,704,-320,-384,672,-16,-288,-416,-32,784,64,-32,32,1360,2640
-32,688,720,-336,-384,704,-16,-304,-432,-32,768,64,48,-64,-608,704
-32,688,720,-336,-384,704,-32,-320,-448,-48,784,64,320,-176,-2352,-1024
-32,656,704,-320,-384,688,-16,-304,-448,-32,752,80,368,-64,-3376,-2368
-32,640,672,-320,-368,656,-16,-288,-432,-32,752,80,-208,112,-4016,-3232
-32,640,672,-320,-368,656,-16,-288,-432,-16,832,80,-592,384,-4480,-4112
-32,672,704,-336,-384,688,-32,-320,-448,-32,880,64,-112,32,-4912,-5152
-32,704,720,-352,-384,704,-48,-320,-448,-48,896,64,208,-128,-4240,-4816
-16,704,720,-352,-384,720,-48,-320,-464,-48,832,64,192,16,-2560,-3504
-32,672,704,-336,-384,688,-48,-320,-464,-48,800,48,352,-112,-416,-1680
-64,624,688,-304,-384,656,-48,-320,-464,-64,752,48,-16,-32,1904,480
-48,656,688,-320,-368,672,-32,-304,-448,-48,864,64,-240,176,3616,2128
-32,688,720,-352,-384,704,-48,-336,-464,-64,896,48,-48,-32,4432,3104
-16,736,752,-384,-384,752,-80,-352,-480,-80,976,32,96,-128,4720,3744
-16,720,736,-368,-384,736,-96,-368,-512,-96,832,16,48,64,5056,4736
-16,672,688,-336,-368,688,-64,-352,-496,-80,832,32,-176,48,4512,4848
-32,688,720,-336,-384,704,-80,-352,-496,-80,864,16,-192,32,2832,3856
-32,688,720,-336,-384,704,-80,-352,-496,-80,928,16,-176,96,720,2208
-32,688,720,-336,-384,704,-80,-368,-496,-80,848,16,304,-64,-1632,208
-32,720,736,-368,-400,720,-96,-384,-512,-96,864,16,432,-192,-3248,-1392
-16,720,736,-368,-384,736,-96,-384,-512,-80,848,16,208,-112,-4192,-2624
-48,672,720,-336,-384,704,-96,-384,-528,-80,816,0,-400,16,-4640,-3472
-32,672,704,-336,-384,688,-96,-368,-512,-64,928,16,-528,96,-4896,-4576
-32,672,704,-336,-384,688,-96,-384,-512,-64,928,32,-80,48,-4672,-5280
-48,704,736,-352,-400,720,-96,-384,-528,-80,912,16,224,-48,-3360,-4656
-32,704,736,-352,-384,720,-96,-384,-528,-80,832,16,160,-112,-1296,-2928
-32,672,704,-336,-384,688,-96,-400,-528,-80,800,16,192,-160,1008,-736
-64,624,688,-304,-384,656,-96,-384,-528,-80,768,16,-96,64,2944,1264
-48,624,672,-304,-368,656,-96,-384,-528,-80,848,16,-336,48,4032,2624
-32,656,688,-336,-368,688,-96,-384,-528,-80,944,16,-32,-48,4224,3392
-16,704,720,-352,-368,704,-112,-416,-544,-96,880,0,80,-128,4240,4080
0,704,704,-368,-352,704,-128,-400,-544,-96,768,16,-32,48,4272,4864
-16,688,704,-352,-368,704,-128,-400,-544,-96,768,0,-208,192,3504,4640
-16,656,672,-336,-352,672,-112,-400,-544,-112,800,0,16,-16,1952,3392
-32,656,672,-320,-368,672,-112,-400,-544,-128,800,-16,-160,64,112,1584
-32,672,704,-336,-368,688,-96,-400,-544,-128,784,-16,320,-240,-1680,-352
-32,704,720,-336,-384,720,-128,-416,-560,-160,736,-48,432,-176,-2880,-1888
-16,704,720,-352,-384,720,-144,-432,-576,-176,688,-48,0,0,-3792,-3104
-16,688,704,-352,-368,704,-128,-416,-576,-176,720,-64,-576,320,-4288,-3872
-32,672,704,-336,-368,704,-128,-416,-560,-176,880,-64,-336,144,-4832,-5008
-32,672,704,-336,-368,688,-128,-416,-560,-176,816,-80,112,-128,-4592,-5152
-16,704,720,-352,-384,720,-128,-416,-576,-208,768,-80,64,-32,-3184,-4080
-16,704,736,-352,-384,720,-144,-432,-576,-224,640,-96,208,-176,-1152,-2208
-32,720,752,-352,-384,736,-144,-432,-592,-240,656,-96,272,80,1216,16
-48,672,720,-320,-400,704,-144,-432,-592,-240,624,-96,-112,80,3152,1760
-64,656,720,-304,-400,688,-144,-416,-576,-240,704,-96,-128,64,4240,2960
-64,704,768,-336,-416,736,-160,-432,-592,-256,768,-112,-80,32,4688,3648
-64,704,768,-336,-416,736,-144,-448,-592,-256,688,-112,192,-16,5008,4576
-64,688,752,-336,-416,736,-144,-432,-592,-272,656,-128,-176,64,4832,5136
-48,720,752,-336,-416,736,-160,-448,-608,-288,656,-128,-112,112,3552,4432
-64,704,752,-320,-416,720,-160,-432,-592,-272,704,-128,32,-96,1488,2880
-80,672,752,-304,-416,720,-160,-432,-592,-272,672,-128,144,-64,-768,864
-64,688,736,-320,-416,720,-144,-432,-592,-288,656,-112,320,-240,-2672,-1072
-48,720,752,-336,-400,736,-160,-432,-576,-288,592,-112,384,-48,-3840,-2448
-48,720,752,-336,-416,736,-176,-448,-592,-304,608,-128,-304,32,-4464,-3424
-64,688,752,-320,-416,720,-160,-448,-608,-304,672,-128,-576,368,-4688,-4192
-80,688,752,-304,-432,720,-176,-448,-608,-304,720,-128,-208,80,-4832,-5136
-80,688,752,-304,-416,720,-160,-432,-592,-304,720,-112,176,-176,-3968,-4928
-64,672,736,-304,-400,704,-160,-448,-592,-288,656,-128,160,-128,-2016,-3504
-64,656,704,-304,-400,688,-144,-432,-592,-288,576,-112,352,-208,144,-1504
-48,672,704,-320,-384,688,-176,-448,-608,-304,544,-128,80,64,2352,720
-48,672,720,-320,-384,688,-160,-432,-592,-304,656,-112,-224,176,3776,2336
-64,656,720,-304,-400,688,-160,-432,-592,-304,704,-112,-176,0,4304,3264
-64,640,704,-304,-384,672,-160,-432,-592,-304,768,-112,192,-176,4288,3792
-64,624,672,-288,-368,640,-160,-448,-592,-288,608,-112,64,-32,4592,4832
-64,608,656,-288,-368,640,-144,-432,-592,-288,592,-96,-304,0,4112,4864
-80,608,672,-272,-368,640,-160,-432,-592,-304,640,-96,-112,0,2640,3792
-64,624,672,-288,-368,640,-160,-432,-608,-304,704,-112,-16,112,768,2064
-64,608,656,-288,-368,640,-144,-432,-592,-304,624,-96,256,-48,-1344,112
-64,576,640,-272,-352,608,-160,-432,-592,-304,656,-80,384,-128,-2688,-1424
-64,544,608,-256,-352,576,-160,-432,-592,-304,624,-96,240,-128,-3728,-2672
-64,576,640,-272,-352,608,-160,-432,-592,-304,592,-96,-416,128,-4272,-3520
-48,592,640,-288,-352,608,-160,-416,-592,-304,704,-80,-624,208,-4928,-4576
-48,592,640,-288,-352,624,-160,-432,-592,-304,720,-80,-64,-32,-4944,-5216
-64,592,656,-288,-368,624,-160,-432,-592,-320,704,-80,112,-96,-3840,-4576
-32,544,576,-272,-304,560,-160,-416,-576,-304,624,-80,272,0,-1856,-2928
-32,560,592,-272,-320,576,-176,-416,-592,-320,592,-80,240,-176,528,-784
-48,560,608,-272,-336,576,-176,-432,-592,-320,544,-80,16,48,2752,1264
-48,560,608,-272,-336,592,-176,-432,-592,-320,656,-80,-144,32,4176,2672
-48,592,640,-288,-352,624,-192,-432,-576,-320,784,-80,-64,-64,4576,3392
-48,592,640,-288,-352,608,-176,-432,-576,-320,704,-96,112,-48,4768,4032
-64,544,608,-256,-352,576,-160,-432,-592,-320,592,-96,-16,80,4864,4848
-48,544,592,-272,-336,576,-160,-416,-576,-304,576,-96,-224,64,3872,4624
-48,544,592,-272,-336,576,-160,-416,-576,-304,624,-96,-128,-112,2096,3344
-64,544,608,-256,-352,592,-176,-432,-576,-304,592,-96,-16,16,-96,1504
-64,544,608,-256,-352,576,-160,-416,-576,-288,608,-80,448,-144,-2208,-464
-48,544,592,-272,-320,560,-176,-432,-576,-288,576,-96,288,-176,-3568,-1968
-48,512,560,-240,-320,528,-160,-416,-560,-272,512,-80,32,-32,-4320,-3136
-80,496,560,-224,-336,528,-144,-400,-544,-256,528,-64,-528,256,-4576,-3840
-96,496,576,-224,-352,544,-144,-400,-544,-256,672,-80,-480,176,-4832,-4944
-80,512,592,-224,-352,560,-144,-400,-560,-272,624,-96,112,-48,-4240,-5024
-80,512,592,-224,-352,544,-144,-416,-560,-288,576,-96,208,-128,-2720,-3920
-80,480,544,-208,-336,512,-144,-416,-560,-272,448,-96,288,-240,-624,-2144
-96,448,528,-192,-320,496,-144,-400,-560,-272,464,-96,48,-48,1648,96
-96,448,528,-192,-320,496,-128,-400,-560,-272,400,-80,-96,112,3280,1840
-96,480,560,-208,-336,528,-144,-400,-544,-272,480,-80,-208,64,4032,2944
-96,496,592,-224,-352,544,-160,-400,-544,-272,560,-80,80,32,4112,3504
-80,496,576,-224,-336,544,-160,-400,-560,-272,480,-96,144,-64,4304,4448
-96,480,544,-208,-320,512,-160,-400,-544,-288,448,-96,-160,48,4112,4944
-80,464,528,-208,-320,496,-160,-400,-544,-272,432,-96,-160,64,3136,4336
-80,464,528,-208,-320,496,-144,-384,-528,-272,480,-80,-96,-32,1456,2720
-80,496,576,-224,-336,544,-144,-400,-544,-288,432,-80,192,-80,-544,736
-96,496,592,-208,-352,544,-160,-400,-544,-304,416,-96,352,-192,-2208,-1056
-80,512,592,-224,-336,544,-176,-400,-544,-320,384,-96,304,-160,-3248,-2400
-64,512,576,-240,-320,544,-176,-384,-544,-320,384,-112,-160,96,-3920,-3344
-64,480,544,-224,-304,512,-160,-384,-528,-304,432,-96,-560,240,-4400,-4144
-64,528,592,-240,-336,560,-192,-400,-544,-336,448,-96,-224,0,-4896,-5040
-64,544,608,-256,-336,576,-176,-400,-544,-336,464,-96,112,-128,-4224,-4768
-80,528,592,-240,-352,560,-176,-400,-544,-336,384,-112,64,64,-2624,-3440
-64,512,576,-240,-336,544,-176,-400,-544,-352,336,-96,336,-256,-448,-1520
-48,512,544,-240,-304,528,-176,-384,-544,-352,288,-112,16,0,1792,592
-64,496,560,-224,-320,528,-160,-368,-528,-336,368,-96,-160,80,3440,2192
-64,528,576,-240,-320,560,-176,-384,-512,-336,416,-96,0,96,4320,3136
-48,560,608,-272,-336,576,-192,-384,-528,-352,480,-112,96,-112,4592,3760
-48,560,608,-272,-336,592,-192,-384,-528,-368,336,-112,16,64,4992,4816
-48,544,576,-256,-320,560,-176,-384,-528,-368,320,-128,-352,96,4560,4976
-64,512,560,-240,-304,528,-192,-368,-528,-368,368,-128,-112,112,2992,3856
-48,512,544,-240,-304,528,-192,-368,-528,-368,400,-112,-32,16,912,2160
-32,512,544,-256,-304,544,-192,-384,-528,-368,304,-112,208,-32,-1312,224
-32,560,576,-272,-304,576,-192,-384,-528,-368,320,-112,480,-112,-2944,-1424
-32,560,592,-272,-320,576,-192,-384,-528,-368,288,-128,176,16,-4048,-2704
-48,528,576,-256,-320,560,-192,-384,-544,-368,256,-144,-320,160,-4592,-3568
-48,512,560,-240,-304,544,-192,-368,-512,-352,368,-128,-512,112,-5024,-4624
-32,512,560,-256,-304,544,-192,-368,-512,-352,352,-128,-64,0,-4944,-5296
-16,544,560,-272,-304,560,-192,-368,-512,-352,320,-128,176,-80,-3728,-4736
-16,560,576,-272,-304,576,-192,-368,-528,-352,224,-144,112,32,-1584,-3056
-16,544,576,-272,-304,560,-192,-384,-528,-368,208,-144,336,-96,880,-944
-32,528,560,-256,-304,544,-192,-368,-512,-368,160,-144,-48,-16,3024,1136
-64,512,576,-240,-320,544,-192,-368,-528,-368,224,-160,-240,96,4336,2640
-32,544,576,-256,-304,560,-176,-368,-512,-368,336,-160,64,0,4608,3392
-16,544,576,-272,-304,576,-192,-384,-528,-368,256,-192,80,-160,4656,4032
-16,576,592,-288,-320,592,-192,-384,-528,-368,144,-176,-16,48,4576,4880
-32,544,576,-272,-304,560,-192,-384,-528,-384,144,-192,-192,128,3632,4736
-48,528,576,-256,-320,560,-192,-384,-528,-384,160,-192,-112,-64,1888,3456
-48,528,560,-256,-320,544,-192,-384,-544,-384,128,-208,-80,128,-64,1632
-32,512,544,-256,-288,528,-160,-368,-512,-384,128,-192,304,-256,-1968,-352
-16,560,576,-288,-304,576,-176,-384,-544,-400,80,-224,336,-192,-3248,-1920
-16,576,592,-288,-320,576,-176,-400,-544,-416,16,-224,16,16,-3952,-3120
-48,544,576,-272,-320,576,-192,-384,-544,-416,48,-224,-496,288,-4240,-3872
-48,528,576,-256,-320,560,-192,-400,-544,-432,192,-256,-384,128,-4736,-5008
-48,528,560,-256,-320,560,-192,-400,-560,-448,128,-256,64,-208,-4352,-5136
-32,528,576,-256,-304,560,-192,-400,-560,-448,48,-256,112,-48,-2960,-4096
-32,544,560,-272,-304,560,-192,-400,-544,-432,-48,-256,256,-80,-1008,-2160
-32,544,576,-272,-304,560,-208,-400,-544,-432,-16,-240,144,-160,1280,80
-32,544,560,-272,-304,560,-208,-400,-560,-448,-80,-240,-96,48,3008,1856
-32,528,560,-256,-304,544,-224,-400,-544,-448,16,-256,-128,160,3968,2928
-32,528,560,-256,-304,544,-224,-400,-544,-448,96,-240,-16,-48,4256,3504
-16,544,560,-272,-304,560,-224,-400,-544,-448,16,-240,64,-48,4656,4400
-32,544,560,-272,-304,560,-224,-400,-544,-448,-32,-240,-64,80,4608,4944
-16,560,576,-288,-304,576,-224,-384,-544,-432,-16,-240,-240,128,3472,4352
-16,560,560,-288,-304,560,-224,-384,-544,-432,32,-224,-80,16,1552,2800
-16,528,544,-256,-304,544,-224,-384,-528,-432,0,-224,-48,-96,-592,880
-16,528,544,-256,-288,528,-224,-384,-512,-416,-16,-208,288,-304,-2496,-960
0,528,528,-272,-272,528,-208,-368,-496,-400,-64,-192,384,-208,-3744,-2320
0,528,544,-272,-272,528,-224,-368,-496,-400,-64,-208,-80,96,-4464,-3376
0,544,544,-288,-272,544,-224,-368,-496,-400,0,-208,-512,192,-4736,-4160
0,560,560,-288,-288,560,-240,-384,-512,-400,48,-208,-304,48,-4960,-5216
0,544,544,-272,-272,544,-224,-368,-496,-384,48,-208,176,-48,-4080,-4912
16,528,512,-288,-256,512,-224,-368,-496,-384,-32,-208,48,-80,-2272,-3552
16,512,496,-288,-240,512,-208,-336,-480,-368,-96,-192,416,-240,16,-1568
16,512,512,-288,-256,512,-208,-336,-480,-368,-112,-192,48,-16,2304,592
16,528,512,-288,-256,528,-208,-336,-464,-352,0,-176,-224,32,3920,2224
0,512,512,-256,-272,512,-208,-336,-464,-368,32,-192,-96,0,4496,3200
-16,528,544,-272,-288,528,-224,-336,-464,-368,96,-192,176,-192,4528,3744
0,528,528,-288,-272,528,-224,-352,-480,-368,-32,-192,80,-32,4640,4720
16,496,480,-272,-240,480,-208,-336,-464,-352,-48,-176,-176,208,4032,4912
32,528,496,-288,-240,512,-208,-336,-464,-368,0,-176,-128,64,2528,3920
32,544,512,-304,-256,528,-224,-352,-480,-384,64,-192,-144,16,544,2128
16,528,512,-288,-256,528,-208,-352,-480,-400,0,-192,320,-128,-1456,112
0,528,528,-288,-256,528,-224,-336,-464,-400,0,-192,448,-256,-2864,-1552
0,528,528,-272,-272,512,-208,-336,-464,-384,-16,-192,144,-80,-3680,-2720
0,528,528,-288,-272,528,-224,-352,-480,-400,-48,-192,-288,128,-4096,-3488
0,560,544,-304,-288,544,-224,-352,-464,-384,64,-176,-576,320,-4512,-4528
16,576,560,-304,-288,560,-224,-352,-464,-400,80,-176,96,-96,-4448,-5200
0,576,560,-304,-288,560,-224,-352,-480,-400,80,-192,48,-48,-3360,-4592
0,528,528,-288,-256,528,-208,-336,-464,-400,0,-192,160,16,-1504,-2896
0,496,496,-272,-256,496,-192,-320,-448,-384,-32,-176,192,-128,608,-880
0,496,496,-272,-256,496,-192,-320,-448,-384,-80,-160,-16,96,2576,1184
0,544,528,-288,-272,528,-208,-336,-448,-384,32,-176,-224,64,3776,2576
0,576,560,-304,-288,576,-208,-336,-448,-384,160,-160,-96,-48,4128,3344
-16,544,560,-288,-288,544,-208,-336,-464,-400,96,-176,48,-32,4320,3920
-16,512,512,-256,-272,512,-192,-320,-448,-368,0,-176,-16,64,4592,4784
-16,480,480,-256,-256,480,-192,-304,-432,-352,0,-160,-240,112,4000,4560
-16,480,496,-256,-256,480,-176,-304,-432,-352,16,-160,-16,0,2432,3328
-16,496,512,-256,-272,496,-192,-320,-432,-352,16,-160,-64,0,464,1600
0,496,496,-272,-256,496,-192,-304,-416,-336,16,-144,336,-192,-1552,-336
0,480,464,-256,-240,464,-192,-304,-416,-336,0,-160,416,-176,-2960,-1744
-16,448,448,-240,-240,448,-192,-304,-400,-320,-64,-144,64,-16,-3936,-2912
-16,416,432,-224,-240,432,-176,-288,-400,-288,-48,-128,-528,176,-4512,-3728
-16,432,432,-240,-240,432,-176,-288,-400,-304,112,-128,-368,160,-4960,-4928
0,448,448,-240,-240,448,-192,-288,-400,-304,64,-128,160,0,-4608,-5088
0,480,464,-256,-240,480,-192,-304,-400,-320,32,-144,64,-96,-2992,-4080
16,432,400,-240,-208,416,-192,-288,-400,-304,-96,-128,208,-112,-800,-2224
16,400,384,-224,-192,384,-192,-288,-384,-304,-64,-128,96,-32,1696,-16
16,400,368,-208,-192,368,-192,-272,-384,-288,-144,-112,-48,0,3680,1760
0,400,384,-224,-192,384,-192,-272,-368,-288,-32,-112,-160,64,4704,2944
16,464,432,-256,-208,448,-208,-304,-400,-320,64,-144,-96,-32,4896,3488
32,480,432,-272,-208,448,-224,-320,-416,-320,-16,-160,128,64,4992,4368
16,432,416,-240,-208,432,-208,-304,-416,-336,-32,-176,-80,64,4656,4992
0,416,400,-224,-208,400,-208,-304,-400,-320,-32,-160,-176,176,3280,4320
16,416,384,-224,-208,400,-192,-288,-400,-304,0,-160,-32,-48,1184,2736
16,432,416,-240,-208,416,-208,-304,-400,-320,-48,-160,-96,-32,-1120,736
16,464,432,-256,-208,448,-208,-304,-416,-336,-48,-160,352,-176,-2960,-1056
32,448,416,-256,-208,432,-208,-304,-416,-336,-96,-176,496,-176,-3952,-2368
16,432,400,-240,-192,416,-192,-304,-416,-336,-80,-176,-208,96,-4352,-3392
16,416,384,-224,-192,400,-192,-288,-416,-336,-16,-176,-448,224,-4432,-4128
16,416,400,-224,-208,400,-192,-304,-416,-336,16,-176,-240,96,-4528,-5056
16,448,416,-240,-208,432,-192,-304,-416,-352,0,-176,176,-176,-3664,-4816
0,448,448,-240,-224,448,-192,-304,-432,-368,-80,-192,192,-80,-1968,-3520
16,448,416,-240,-224,432,-176,-304,-416,-352,-128,-176,432,-96,-80,-1600
16,416,384,-224,-208,400,-192,-304,-432,-368,-160,-192,16,-32,1856,528
0,384,368,-208,-192,384,-176,-272,-400,-352,-80,-176,-208,16,3104,2112
-16,384,384,-208,-208,400,-176,-288,-416,-352,-64,-176,-32,-48,3520,3088
0,432,416,-224,-224,432,-192,-304,-416,-368,0,-192,224,-64,3424,3648
16,464,432,-256,-224,448,-208,-304,-432,-384,-128,-208,48,-80,3680,4640
16,448,416,-240,-208,432,-208,-304,-432,-384,-144,-192,-208,32,3344,4848
0,416,416,-224,-224,416,-192,-288,-416,-368,-96,-192,-112,64,2192,3888
0,400,400,-208,-208,400,-192,-288,-416,-368,-48,-192,-144,32,496,2080
0,416,400,-224,-208,400,-208,-288,-416,-368,-160,-208,192,-48,-1344,176
0,432,416,-240,-208,432,-224,-304,-416,-384,-160,-224,464,-176,-2704,-1392
16,464,432,-256,-224,448,-208,-304,-416,-384,-144,-240,192,-176,-3728,-2576
16,464,448,-256,-224,464,-224,-304,-432,-400,-160,-256,-272,128,-4384,-3408
0,432,432,-240,-224,432,-224,-288,-416,-400,-80,-256,-480,176,-5104,-4400
0,432,416,-240,-224,432,-224,-288,-416,-400,-80,-256,-80,-112,-5376,-5120
16,448,432,-240,-208,432,-224,-304,-416,-384,-112,-240,160,48,-4464,-4496
16,448,432,-240,-208,432,-224,-304,-416,-400,-176,-256,192,-32,-2608,-2928
0,464,448,-256,-224,448,-240,-304,-432,-400,-208,-256,288,-128,-288,-848
16,464,432,-256,-224,432,-240,-304,-416,-416,-256,-256,0,32,1920,1216
0,448,432,-240,-224,432,-240,-304,-416,-416,-176,-272,-176,128,3264,2688
0,432,416,-224,-208,416,-224,-272,-400,-400,-64,-256,32,32,3872,3472
16,448,432,-240,-208,432,-224,-288,-416,-416,-144,-272,112,-96,4064,4112
32,448,416,-256,-192,432,-224,-288,-416,-400,-288,-256,-48,64,4112,4992
32,464,432,-256,-208,432,-224,-272,-400,-400,-272,-256,-272,144,3248,4752
0,432,416,-240,-208,416,-224,-272,-416,-400,-256,-256,-32,-16,1440,3424
0,416,416,-224,-208,400,-224,-272,-416,-400,-272,-256,-112,64,-624,1680
16,400,384,-224,-192,384,-208,-272,-400,-384,-320,-224,240,-96,-2720,-336
16,416,384,-240,-192,400,-208,-272,-384,-384,-352,-224,320,-144,-4016,-1808
0,416,400,-224,-208,400,-208,-272,-384,-368,-416,-192,32,48,-4768,-3056
16,400,384,-224,-192,400,-192,-256,-384,-368,-416,-192,-448,176,-5024,-3808
0,416,416,-224,-224,416,-192,-256,-384,-368,-256,-192,-400,48,-5248,-4896
0,400,400,-208,-208,384,-192,-256,-384,-368,-336,-192,48,-64,-4656,-5120
16,384,368,-224,-176,368,-192,-240,-384,-352,-400,-176,128,64,-3008,-4096
32,384,336,-224,-160,352,-192,-240,-368,-336,-544,-160,288,-96,-816,-2224
32,400,368,-240,-176,384,-192,-240,-368,-336,-528,-160,128,32,1504,-16
16,400,368,-224,-192,384,-192,-256,-384,-352,-592,-160,-96,32,3264,1792
0,384,384,-208,-192,384,-192,-256,-400,-384,-512,-176,-80,64,4144,2944
0,384,368,-208,-192,368,-192,-256,-384,-384,-432,-176,-32,-48,4352,3440
0,352,352,-192,-176,352,-192,-240,-384,-368,-528,-176,80,-64,4608,4256
0,352,336,-192,-176,352,-176,-240,-368,-368,-576,-160,-128,80,4640,4928
16,384,352,-224,-160,352,-176,-240,-384,-368,-592,-160,-320,32,3664,4304
32,400,352,-240,-176,368,-192,-240,-384,-368,-544,-160,48,32,1968,2816
48,432,368,-272,-160,400,-208,-256,-384,-384,-576,-176,48,-80,-32,944
32,384,352,-224,-176,352,-208,-256,-400,-384,-592,-176,432,-176,-1792,-960
16,368,352,-224,-176,352,-208,-256,-400,-384,-672,-176,416,-224,-2896,-2336
16,368,336,-224,-160,352,-192,-256,-384,-368,-672,-160,-144,32,-3504,-3360
32,384,352,-224,-176,368,-208,-256,-384,-368,-608,-160,-624,272,-3792,-4080
16,416,384,-240,-192,400,-224,-272,-416,-384,-560,-176,-160,0,-4160,-5056
16,416,400,-240,-192,416,-224,-272,-400,-384,-576,-176,112,-32,-3376,-4848
16,416,384,-240,-192,384,-224,-256,-400,-384,-640,-176,64,-112,-1600,-3552
32,384,352,-240,-160,368,-208,-240,-384,-352,-720,-160,320,-256,592,-1728
32,400,352,-240,-160,368,-224,-256,-400,-352,-752,-160,32,-32,2912,400
16,416,384,-240,-192,384,-208,-256,-384,-352,-688,-160,-224,80,4544,1984
32,432,400,-256,-192,416,-208,-256,-384,-352,-640,-160,-112,-16,5168,2944
32,448,400,-256,-192,416,-224,-256,-384,-352,-544,-160,240,-176,5216,3552
32,416,384,-256,-176,400,-224,-256,-400,-352,-688,-176,32,0,5360,4592
32,400,352,-240,-176,368,-208,-240,-384,-336,-720,-176,-288,80,4784,4800
32,400,352,-240,-176,368,-192,-240,-368,-336,-656,-160,-176,16,3216,3904
32,416,352,-240,-176,384,-192,-240,-384,-336,-560,-160,32,32,1152,2208
48,416,368,-256,-176,384,-208,-256,-384,-352,-640,-176,96,-16,-944,192
48,416,352,-256,-160,384,-208,-240,-384,-352,-608,-176,448,-160,-2464,-1472
48,384,336,-240,-160,352,-192,-224,-368,-352,-592,-176,96,-144,-3344,-2688
32,352,320,-208,-160,336,-176,-224,-368,-336,-592,-176,-320,80,-3776,-3552
32,352,320,-208,-144,336,-160,-208,-352,-336,-480,-176,-480,240,-4208,-4608
32,384,320,-224,-144,352,-176,-224,-368,-352,-448,-176,-64,0,-4288,-5328
48,384,336,-240,-144,368,-192,-224,-368,-368,-432,-176,112,-64,-3280,-4752
48,368,304,-224,-144,336,-192,-224,-368,-368,-480,-176,96,-48,-1440,-3104
64,336,272,-208,-128,304,-176,-224,-368,-352,-512,-176,272,-128,704,-928
48,320,272,-192,-128,288,-176,-224,-352,-352,-544,-160,-48,0,2736,1136
32,336,304,-192,-144,320,-192,-224,-368,-368,-416,-176,-224,32,4000,2592
48,368,320,-224,-144,352,-192,-224,-352,-352,-272,-160,0,32,4416,3408
64,400,320,-256,-144,368,-208,-240,-368,-368,-304,-176,16,-48,4544,4096
80,384,304,-240,-128,352,-208,-224,-368,-368,-416,-160,48,32,4736,4928
48,304,256,-192,-112,288,-192,-224,-368,-368,-384,-176,-224,48,4080,4688
48,304,256,-192,-112,288,-176,-224,-368,-368,-368,-176,32,-48,2400,3360
32,320,272,-176,-128,288,-192,-224,-368,-368,-352,-176,-112,160,400,1520
64,352,288,-224,-128,320,-192,-224,-368,-368,-368,-176,320,-128,-1728,-384
64,384,320,-240,-128,352,-208,-240,-384,-384,-368,-192,496,-160,-3168,-1776
64,352,288,-224,-128,320,-208,-240,-384,-368,-400,-192,0,-48,-4192,-2944
48,336,272,-192,-128,304,-192,-224,-368,-352,-400,-176,-512,96,-4720,-3808
64,336,272,-224,-112,320,-192,-224,-352,-336,-224,-176,-368,64,-5280,-4976
